LocalTimestamp,DataReliability,PacketNumber,PG
1758101933.665923,100,57880,5205
1758101933.705923,100,57896,5181
1758101933.745923,100,57896,5187
1758101933.785923,100,57896,5181
1758101933.8259232,100,57916,5176
1758101933.8659232,100,57916,5173
1758101933.9059231,100,57932,5181
1758101933.945923,100,57932,5168
1758101933.985923,100,57932,5177
1758101934.025923,100,57949,5193
1758101934.0659232,100,57949,5214
1758101934.1059232,100,57949,5191
1758101934.1459231,100,57966,5207
1758101934.185923,100,57966,5211
1758101934.225923,100,57983,5237
1758101934.265923,100,57983,5232
1758101934.3059232,100,57983,5252
1758101934.3459232,100,57999,5236
1758101934.3859231,100,57999,5241
1758101934.425923,100,58015,5227
1758101934.465923,100,58015,5217
1758101934.505923,100,58015,5205
1758101934.5459232,100,58031,5208
1758101934.5859232,100,58031,5205
1758101934.6259232,100,58048,5201
1758101934.665923,100,58048,5193
1758101934.705923,100,58048,5199
1758101934.745923,100,58064,5205
1758101934.785923,100,58064,5212
1758101934.8259232,100,58080,5204
1758101934.8659232,100,58080,5210
1758101934.9059231,100,58080,5223
1758101934.945923,100,58096,5212
1758101934.985923,100,58096,5225
1758101935.025923,100,58113,5218
1758101935.0659232,100,58113,5243
1758101935.1059232,100,58113,5240
1758101935.1459231,100,58130,5255
1758101935.185923,100,58130,5244
1758101935.225923,100,58146,5235
1758101935.265923,100,58146,5236
1758101935.3059232,100,58146,5223
1758101935.3459232,100,58161,5220
1758101935.3859231,100,58161,5207
1758101935.425923,100,58179,5218
1758101935.465923,100,58179,5207
1758101935.505923,100,58179,5210
1758101935.5459232,100,58195,5223
1758101935.5859232,100,58195,5217
1758101935.6259232,100,58195,5219
1758101935.665923,100,58219,5242
1758101935.705923,100,58219,5238
1758101935.745923,100,58219,5241
1758101935.785923,100,58236,5257
1758101935.8259232,100,58236,5258
1758101935.8659232,100,58236,5275
1758101935.9059231,100,58251,5269
1758101935.945923,100,58251,5254
1758101935.985923,100,58267,5256
1758101936.025923,100,58267,5243
1758101936.0659232,100,58267,5238
1758101936.1059232,100,58285,5252
1758101936.1459231,100,58285,5256
1758101936.185923,100,58285,5247
1758101936.225923,100,58301,5253
1758101936.265923,100,58301,5258
1758101936.3059232,100,58317,5264
1758101936.3459232,100,58317,5255
1758101936.3859231,100,58317,5262
1758101936.425923,100,58332,5259
1758101936.465923,100,58332,5259
1758101936.505923,100,58350,5268
1758101936.5459232,100,58350,5286
1758101936.5859232,100,58350,5297
1758101936.6259232,100,58366,5302
1758101936.665923,100,58366,5292
1758101936.705923,100,58383,5282
1758101936.745923,100,58383,5273
1758101936.785923,100,58398,5291
1758101936.8259232,100,58398,5293
1758101936.8659232,100,58398,5282
1758101936.9059231,100,58415,5304
1758101936.945923,100,58415,5300
1758101936.985923,100,58433,5313
1758101937.025923,100,58433,5322
1758101937.0659232,100,58433,5332
1758101937.1059232,100,58451,5361
1758101937.1459231,100,58451,5374
1758101937.185923,100,58451,5388
1758101937.225923,100,58465,5381
1758101937.265923,100,58465,5375
1758101937.3059232,100,58482,5387
1758101937.3459232,100,58482,5383
1758101937.3859231,100,58482,5399
1758101937.425923,100,58501,5401
1758101937.465923,100,58501,5391
1758101937.505923,100,58518,5407
1758101937.5459232,100,58518,5411
1758101937.5859232,100,58518,5415
1758101937.6259232,100,58532,5427
1758101937.665923,100,58532,5416
1758101937.705923,100,58549,5431
1758101937.745923,100,58549,5422
1758101937.785923,100,58549,5425
1758101937.8259232,100,58566,5426
1758101937.8659232,100,58566,5421
1758101937.9059231,100,58585,5412
1758101937.945923,100,58585,5397
1758101937.985923,100,58585,5387
1758101938.025923,100,58599,5389
1758101938.0659232,100,58599,5385
1758101938.1059232,100,58617,5399
1758101938.1459231,100,58617,5399
1758101938.185923,100,58617,5406
1758101938.225923,100,58633,5390
1758101938.265923,100,58633,5392
1758101938.3059232,100,58650,5415
1758101938.3459232,100,58650,5416
1758101938.3859231,100,58650,5414
1758101938.425923,100,58666,5409
1758101938.465923,100,58666,5414
1758101938.505923,100,58666,5408
1758101938.5459232,100,58682,5396
1758101938.5859232,100,58682,5400
1758101938.6259232,100,58698,5400
1758101938.665923,100,58698,5400
1758101938.705923,100,58698,5414
1758101938.745923,100,58716,5401
1758101938.785923,100,58716,5404
1758101938.8259232,100,58734,5411
1758101938.8659232,100,58734,5427
1758101938.9059231,100,58734,5429
1758101938.945923,100,58749,5435
1758101938.985923,100,58749,5436
1758101939.025923,100,58765,5438
1758101939.0659232,100,58765,5435
1758101939.1059232,100,58765,5438
1758101939.1459231,100,58783,5437
1758101939.185923,100,58783,5434
1758101939.225923,100,58799,5433
1758101939.265923,100,58799,5424
1758101939.3059232,100,58799,5447
1758101939.3459232,100,58814,5441
1758101939.3859231,100,58814,5449
1758101939.425923,100,58814,5454
1758101939.465923,100,58831,5452
1758101939.505923,100,58831,5465
1758101939.5459232,100,58848,5456
1758101939.5859232,100,58848,5465
1758101939.6259232,100,58848,5463
1758101939.665923,100,58864,5483
1758101939.705923,100,58864,5465
1758101939.745923,100,58880,5464
1758101939.785923,100,58880,5453
1758101939.8259232,100,58880,5453
1758101939.8659232,100,58896,5471
1758101939.9059231,100,58896,5471
1758101939.945923,100,58913,5480
1758101939.985923,100,58913,5472
1758101940.025923,100,58913,5482
1758101940.0659232,100,58929,5478
1758101940.1059232,100,58929,5483
1758101940.1459231,100,58945,5484
1758101940.185923,100,58945,5511
1758101940.225923,100,58945,5514
1758101940.265923,100,58961,5494
1758101940.3059232,100,58961,5500
1758101940.3459232,100,58978,5494
1758101940.3859231,100,58978,5499
1758101940.425923,100,58978,5494
1758101940.465923,100,58995,5494
1758101940.505923,100,58995,5491
1758101940.5459232,100,59011,5493
1758101940.5859232,100,59011,5489
1758101940.6259232,100,59011,5495
1758101940.665923,100,59026,5492
1758101940.705923,100,59026,5507
1758101940.745923,100,59049,5512
1758101940.785923,100,59049,5518
1758101940.8259232,100,59049,5521
1758101940.8659232,100,59049,5513
1758101940.9059231,100,59065,5519
1758101940.945923,100,59065,5510
1758101940.985923,100,59082,5489
1758101941.025923,100,59082,5494
1758101941.0659232,100,59082,5498
1758101941.1059232,100,59099,5490
1758101941.1459231,100,59099,5494
1758101941.185923,100,59099,5498
1758101941.225923,100,59116,5509
1758101941.265923,100,59116,5501
1758101941.3059232,100,59132,5503
1758101941.3459232,100,59132,5501
1758101941.3859231,100,59132,5511
1758101941.425923,100,59150,5516
1758101941.465923,100,59150,5499
1758101941.505923,100,59166,5510
1758101941.5459232,100,59166,5495
1758101941.5859232,100,59166,5483
1758101941.6259232,100,59181,5474
1758101941.665923,100,59181,5476
1758101941.705923,100,59199,5481
1758101941.745923,100,59199,5493
1758101941.785923,100,59199,5486
1758101941.8259232,100,59217,5492
1758101941.8659232,100,59217,5483
1758101941.9059231,100,59233,5480
1758101941.945923,100,59233,5486
1758101941.985923,100,59233,5489
1758101942.025923,100,59248,5492
1758101942.0659232,100,59248,5480
1758101942.1059232,100,59265,5472
1758101942.1459231,100,59265,5461
1758101942.185923,100,59265,5450
1758101942.225923,100,59282,5456
1758101942.265923,100,59282,5458
1758101942.3059232,100,59282,5457
1758101942.3459232,100,59298,5460
1758101942.3859231,100,59298,5455
1758101942.425923,100,59315,5465
1758101942.465923,100,59315,5461
1758101942.505923,100,59315,5466
1758101942.5459232,100,59330,5458
1758101942.5859232,100,59330,5467
1758101942.6259232,100,59347,5455
1758101942.665923,100,59347,5453
1758101942.705923,100,59347,5441
1758101942.745923,100,59364,5441
1758101942.785923,100,59364,5434
1758101942.8259232,100,59383,5418
1758101942.8659232,100,59383,5422
1758101942.9059231,100,59383,5434
1758101942.945923,100,59397,5436
1758101942.985923,100,59397,5428
1758101943.025923,100,59414,5432
1758101943.0659232,100,59414,5430
1758101943.1059232,100,59414,5443
1758101943.1459231,100,59431,5426
1758101943.185923,100,59431,5429
1758101943.225923,100,59448,5434
1758101943.265923,100,59448,5431
1758101943.3059232,100,59448,5409
1758101943.3459232,100,59462,5401
1758101943.3859231,100,59462,5391
1758101943.425923,100,59462,5399
1758101943.465923,100,59480,5397
1758101943.505923,100,59480,5389
1758101943.5459232,100,59496,5396
1758101943.5859232,100,59496,5384
1758101943.6259232,100,59496,5385
1758101943.665923,100,59513,5365
1758101943.705923,100,59513,5370
1758101943.745923,100,59528,5375
1758101943.785923,100,59528,5382
1758101943.8259232,100,59528,5374
1758101943.8659232,100,59549,5365
1758101943.9059231,100,59549,5376
1758101943.945923,100,59565,5363
1758101943.985923,100,59565,5356
1758101944.025923,100,59565,5344
1758101944.0659232,100,59582,5345
1758101944.1059232,100,59582,5327
1758101944.1459231,100,59597,5326
1758101944.185923,100,59597,5329
1758101944.225923,100,59597,5321
1758101944.265923,100,59614,5329
1758101944.3059232,100,59614,5329
1758101944.3459232,100,59630,5325
1758101944.3859231,100,59630,5324
1758101944.425923,100,59630,5319
1758101944.465923,100,59648,5341
1758101944.505923,100,59648,5337
1758101944.5459232,100,59663,5348
1758101944.5859232,100,59663,5341
1758101944.6259232,100,59663,5328
1758101944.665923,100,59679,5306
1758101944.705923,100,59679,5303
1758101944.745923,100,59696,5302
1758101944.785923,100,59696,5302
1758101944.8259232,100,59696,5311
1758101944.8659232,100,59713,5311
1758101944.9059231,100,59713,5302
1758101944.945923,100,59729,5296
1758101944.985923,100,59729,5302
1758101945.025923,100,59729,5306
1758101945.0659232,100,59745,5313
1758101945.1059232,100,59745,5319
1758101945.1459231,100,59761,5319
1758101945.185923,100,59761,5318
1758101945.225923,100,59761,5312
1758101945.265923,100,59778,5298
1758101945.3059232,100,59778,5287
1758101945.3459232,100,59794,5285
1758101945.3859231,100,59794,5276
1758101945.425923,100,59794,5283
1758101945.465923,100,59810,5268
1758101945.505923,100,59810,5273
1758101945.5459232,100,59826,5280
1758101945.5859232,100,59826,5268
1758101945.6259232,100,59826,5283
1758101945.665923,100,59843,5284
1758101945.705923,100,59843,5279
1758101945.745923,100,59860,5290
1758101945.785923,100,59860,5282
1758101945.8259232,100,59860,5292
1758101945.8659232,100,59880,5292
1758101945.9059231,100,59880,5279
1758101945.945923,100,59880,5268
1758101945.985923,100,59880,5276
1758101946.025923,100,59896,5262
1758101946.0659232,100,59896,5254
1758101946.1059232,100,59914,5253
1758101946.1459231,100,59914,5252
1758101946.185923,100,59914,5261
1758101946.225923,100,59930,5239
1758101946.265923,100,59930,5243
1758101946.3059232,100,59947,5237
1758101946.3459232,100,59947,5255
1758101946.3859231,100,59947,5245
1758101946.425923,100,59963,5259
1758101946.465923,100,59963,5249
1758101946.505923,100,59979,5251
1758101946.5459232,100,59979,5270
1758101946.5859232,100,59979,5245
1758101946.6259232,100,59995,5240
1758101946.665923,100,59995,5232
1758101946.705923,100,60013,5224
1758101946.745923,100,60013,5220
1758101946.785923,100,60013,5219
1758101946.8259232,100,60029,5215
1758101946.8659232,100,60029,5219
1758101946.9059231,100,60046,5211
1758101946.945923,100,60046,5221
1758101946.985923,100,60046,5230
1758101947.025923,100,60062,5218
1758101947.0659232,100,60062,5226
1758101947.1059232,100,60062,5228
1758101947.1459231,100,60080,5254
1758101947.185923,100,60080,5249
1758101947.225923,100,60096,5254
1758101947.265923,100,60096,5236
1758101947.3059232,100,60096,5226
1758101947.3459232,100,60111,5210
1758101947.3859231,100,60111,5196
1758101947.425923,100,60128,5205
1758101947.465923,100,60128,5211
1758101947.505923,100,60128,5219
1758101947.5459232,100,60145,5208
1758101947.5859232,100,60145,5215
1758101947.6259232,100,60161,5222
1758101947.665923,100,60161,5220
1758101947.705923,100,60161,5234
1758101947.745923,100,60179,5242
1758101947.785923,100,60179,5227
1758101947.8259232,100,60195,5236
1758101947.8659232,100,60195,5235
1758101947.9059231,100,60195,5246
1758101947.945923,100,60212,5257
1758101947.985923,100,60212,5234
1758101948.025923,100,60228,5227
1758101948.0659232,100,60228,5210
1758101948.1059232,100,60228,5210
1758101948.1459231,100,60246,5219
1758101948.185923,100,60246,5227
1758101948.225923,100,60262,5222
1758101948.265923,100,60262,5222
1758101948.3059232,100,60262,5214
1758101948.3459232,100,60279,5221
1758101948.3859231,100,60279,5220
1758101948.425923,100,60296,5228
1758101948.465923,100,60296,5244
1758101948.505923,100,60296,5250
1758101948.5459232,100,60312,5256
1758101948.5859232,100,60312,5266
1758101948.6259232,100,60312,5247
1758101948.665923,100,60327,5238
1758101948.705923,100,60327,5242
1758101948.745923,100,60347,5237
1758101948.785923,100,60347,5244
1758101948.8259232,100,60347,5254
1758101948.8659232,100,60365,5242
1758101948.9059231,100,60365,5256
1758101948.945923,100,60382,5254
1758101948.985923,100,60382,5248
1758101949.025923,100,60382,5260
1758101949.0659232,100,60397,5278
1758101949.1059232,100,60397,5276
1758101949.1459231,100,60414,5271
1758101949.185923,100,60414,5283
1758101949.225923,100,60414,5258
1758101949.265923,100,60430,5256
1758101949.3059232,100,60430,5249
1758101949.3459232,100,60447,5241
1758101949.3859231,100,60447,5229
1758101949.425923,100,60447,5223
1758101949.465923,100,60462,5223
1758101949.505923,100,60462,5234
1758101949.5459232,100,60479,5241
1758101949.5859232,100,60479,5240
1758101949.6259232,100,60479,5252
1758101949.665923,100,60495,5241
1758101949.705923,100,60495,5249
1758101949.745923,100,60495,5267
1758101949.785923,100,60513,5265
1758101949.8259232,100,60513,5264
1758101949.8659232,100,60527,5239
1758101949.9059231,100,60527,5228
1758101949.945923,100,60527,5213
1758101949.985923,100,60544,5219
1758101950.025923,100,60544,5224
1758101950.0659232,100,60561,5225
1758101950.1059232,100,60561,5229
1758101950.1459231,100,60561,5239
1758101950.185923,100,60580,5225
1758101950.225923,100,60580,5245
1758101950.265923,100,60594,5260
1758101950.3059232,100,60594,5264
1758101950.3459232,100,60594,5261
1758101950.3859231,100,60611,5257
1758101950.425923,100,60611,5251
1758101950.465923,100,60628,5252
1758101950.505923,100,60628,5234
1758101950.5459232,100,60628,5234
1758101950.5859232,100,60647,5218
1758101950.6259232,100,60647,5245
1758101950.665923,100,60662,5236
1758101950.705923,100,60662,5256
1758101950.745923,100,60662,5272
1758101950.785923,100,60679,5266
1758101950.8259232,100,60679,5257
1758101950.8659232,100,60695,5263
1758101950.9059231,100,60695,5261
1758101950.945923,100,60695,5252
1758101950.985923,100,60717,5248
1758101951.025923,100,60717,5239
1758101951.0659232,100,60717,5235
1758101951.1059232,100,60717,5219
1758101951.1459231,100,60734,5221
1758101951.185923,100,60734,5218
1758101951.225923,100,60751,5240
1758101951.265923,100,60751,5248
1758101951.3059232,100,60751,5253
1758101951.3459232,100,60765,5260
1758101951.3859231,100,60765,5278
1758101951.425923,100,60783,5278
1758101951.465923,100,60783,5281
1758101951.505923,100,60783,5278
1758101951.5459232,100,60801,5260
1758101951.5859232,100,60801,5261
1758101951.6259232,100,60818,5257
1758101951.665923,100,60818,5240
1758101951.705923,100,60818,5252
1758101951.745923,100,60835,5245
1758101951.785923,100,60835,5269
1758101951.8259232,100,60852,5274
1758101951.8659232,100,60852,5271
1758101951.9059231,100,60852,5268
1758101951.945923,100,60868,5272
1758101951.985923,100,60868,5275
1758101952.025923,100,60885,5276
1758101952.0659232,100,60885,5273
1758101952.1059232,100,60885,5271
1758101952.1459231,100,60901,5274
1758101952.185923,100,60901,5276
1758101952.225923,100,60901,5275
1758101952.265923,100,60919,5266
1758101952.3059232,100,60919,5271
1758101952.3459232,100,60935,5279
1758101952.3859231,100,60935,5286
1758101952.425923,100,60935,5285
1758101952.465923,100,60953,5284
1758101952.505923,100,60953,5293
1758101952.5459232,100,60968,5289
1758101952.5859232,100,60968,5302
1758101952.6259232,100,60968,5298
1758101952.665923,100,60984,5278
1758101952.705923,100,60984,5283
1758101952.745923,100,61001,5275
1758101952.785923,100,61001,5280
1758101952.8259232,100,61001,5285
1758101952.8659232,100,61020,5300
1758101952.9059231,100,61020,5302
1758101952.945923,100,61036,5286
1758101952.985923,100,61036,5295
1758101953.025923,100,61036,5303
1758101953.0659232,100,61052,5325
1758101953.1059232,100,61052,5331
1758101953.1459231,100,61068,5323
1758101953.185923,100,61068,5319
1758101953.225923,100,61068,5309
1758101953.265923,100,61085,5298
1758101953.3059232,100,61085,5301
1758101953.3459232,100,61101,5325
1758101953.3859231,100,61101,5330
1758101953.425923,100,61101,5330
1758101953.465923,100,61117,5324
1758101953.505923,100,61117,5328
1758101953.5459232,100,61135,5332
1758101953.5859232,100,61135,5340
1758101953.6259232,100,61135,5336
1758101953.665923,100,61152,5349
1758101953.705923,100,61152,5327
1758101953.745923,100,61169,5323
1758101953.785923,100,61169,5295
1758101953.8259232,100,61169,5304
1758101953.8659232,100,61186,5314
1758101953.9059231,100,61186,5310
1758101953.945923,100,61202,5316
1758101953.985923,100,61202,5318
1758101954.025923,100,61202,5333
1758101954.0659232,100,61220,5336
1758101954.1059232,100,61220,5344
1758101954.1459231,100,61236,5356
1758101954.185923,100,61236,5351
1758101954.225923,100,61236,5338
1758101954.265923,100,61253,5327
1758101954.3059232,100,61253,5319
1758101954.3459232,100,61269,5319
1758101954.3859231,100,61269,5323
1758101954.425923,100,61269,5331
1758101954.465923,100,61287,5330
1758101954.505923,100,61287,5334
1758101954.5459232,100,61303,5334
1758101954.5859232,100,61303,5336
1758101954.6259232,100,61303,5347
1758101954.665923,100,61319,5364
1758101954.705923,100,61319,5356
1758101954.745923,100,61319,5357
1758101954.785923,100,61335,5333
1758101954.8259232,100,61335,5327
1758101954.8659232,100,61352,5327
1758101954.9059231,100,61352,5323
1758101954.945923,100,61352,5329
1758101954.985923,100,61368,5325
1758101955.025923,100,61368,5328
1758101955.0659232,100,61386,5323
1758101955.1059232,100,61386,5319
1758101955.1459231,100,61386,5316
1758101955.185923,100,61400,5333
1758101955.225923,100,61400,5333
1758101955.265923,100,61417,5320
1758101955.3059232,100,61417,5289
1758101955.3459232,100,61417,5283
1758101955.3859231,100,61434,5275
1758101955.425923,100,61434,5279
1758101955.465923,100,61451,5294
1758101955.505923,100,61451,5302
1758101955.5459232,100,61451,5304
1758101955.5859232,100,61451,5293
1758101955.6259232,100,61469,5304
1758101955.665923,100,61469,5303
1758101955.705923,100,61469,5299
1758101955.745923,100,61487,5303
1758101955.785923,100,61487,5309
1758101955.8259232,100,61501,5304
1758101955.8659232,100,61501,5285
1758101955.9059231,100,61501,5279
1758101955.945923,100,61518,5299
1758101955.985923,100,61518,5295
1758101956.025923,100,61544,5301
1758101956.0659232,100,61544,5298
1758101956.1059232,100,61544,5304
1758101956.1459231,100,61544,5307
1758101956.185923,100,61544,5317
1758101956.225923,100,61561,5311
1758101956.265923,100,61561,5310
1758101956.3059232,100,61577,5302
1758101956.3459232,100,61577,5287
1758101956.3859231,100,61577,5280
1758101956.425923,100,61595,5281
1758101956.465923,100,61595,5266
1758101956.505923,100,61611,5273
1758101956.5459232,100,61611,5268
1758101956.5859232,100,61611,5276
1758101956.6259232,100,61628,5272
1758101956.665923,100,61628,5284
1758101956.705923,100,61628,5290
1758101956.745923,100,61645,5296
1758101956.785923,100,61645,5280
1758101956.8259232,100,61662,5264
1758101956.8659232,100,61662,5237
1758101956.9059231,100,61662,5233
1758101956.945923,100,61676,5250
1758101956.985923,100,61676,5256
1758101957.025923,100,61693,5272
1758101957.0659232,100,61693,5279
1758101957.1059232,100,61693,5282
1758101957.1459231,100,61712,5273
1758101957.185923,100,61712,5267
1758101957.225923,100,61729,5286
1758101957.265923,100,61729,5296
1758101957.3059232,100,61729,5288
1758101957.3459232,100,61744,5282
1758101957.3859231,100,61744,5276
1758101957.425923,100,61761,5283
1758101957.465923,100,61761,5279
1758101957.505923,100,61761,5281
1758101957.5459232,100,61777,5280
1758101957.5859232,100,61777,5294
1758101957.6259232,100,61794,5296
1758101957.665923,100,61794,5299
1758101957.705923,100,61794,5307
1758101957.745923,100,61813,5318
1758101957.785923,100,61813,5320
1758101957.8259232,100,61828,5305
1758101957.8659232,100,61828,5285
1758101957.9059231,100,61828,5280
1758101957.945923,100,61844,5289
1758101957.985923,100,61844,5278
1758101958.025923,100,61844,5308
1758101958.0659232,100,61862,5306
1758101958.1059232,100,61862,5317
1758101958.1459231,100,61878,5310
1758101958.185923,100,61878,5311
1758101958.225923,100,61878,5318
1758101958.265923,100,61893,5324
1758101958.3059232,100,61893,5317
1758101958.3459232,100,61909,5298
1758101958.3859231,100,61909,5277
1758101958.425923,100,61909,5285
1758101958.465923,100,61927,5295
1758101958.505923,100,61927,5312
1758101958.5459232,100,61943,5325
1758101958.5859232,100,61943,5333
1758101958.6259232,100,61943,5340
1758101958.665923,100,61960,5327
1758101958.705923,100,61960,5336
1758101958.745923,100,61977,5333
1758101958.785923,100,61977,5330
1758101958.8259232,100,61977,5316
1758101958.8659232,100,61996,5327
1758101958.9059231,100,61996,5324
1758101958.945923,100,62012,5322
1758101958.985923,100,62012,5341
1758101959.025923,100,62012,5336
1758101959.0659232,100,62028,5337
1758101959.1059232,100,62028,5360
1758101959.1459231,100,62044,5352
1758101959.185923,100,62044,5345
1758101959.225923,100,62044,5358
1758101959.265923,100,62063,5353
1758101959.3059232,100,62063,5343
1758101959.3459232,100,62063,5345
1758101959.3859231,100,62079,5326
1758101959.425923,100,62079,5334
1758101959.465923,100,62096,5333
1758101959.505923,100,62096,5340
1758101959.5459232,100,62096,5335
1758101959.5859232,100,62111,5357
1758101959.6259232,100,62111,5360
1758101959.665923,100,62128,5354
1758101959.705923,100,62128,5356
1758101959.745923,100,62128,5351
1758101959.785923,100,62145,5345
1758101959.8259232,100,62145,5344
1758101959.8659232,100,62162,5330
1758101959.9059231,100,62162,5332
1758101959.945923,100,62162,5324
1758101959.985923,100,62176,5337
1758101960.025923,100,62176,5354
1758101960.0659232,100,62194,5347
1758101960.1059232,100,62194,5356
1758101960.1459231,100,62194,5373
1758101960.185923,100,62212,5386
1758101960.225923,100,62212,5367
1758101960.265923,100,62231,5356
1758101960.3059232,100,62231,5351
1758101960.3459232,100,62231,5324
1758101960.3859231,100,62246,5337
1758101960.425923,100,62246,5349
1758101960.465923,100,62263,5323
1758101960.505923,100,62263,5357
1758101960.5459232,100,62263,5357
1758101960.5859232,100,62281,5368
1758101960.6259232,100,62281,5359
1758101960.665923,100,62281,5368
1758101960.705923,100,62298,5348
1758101960.745923,100,62298,5353
1758101960.785923,100,62313,5345
1758101960.8259232,100,62313,5349
1758101960.8659232,100,62313,5333
1758101960.9059231,100,62330,5336
1758101960.945923,100,62330,5348
1758101960.985923,100,62346,5344
1758101961.025923,100,62346,5353
1758101961.0659232,100,62346,5357
1758101961.1059232,100,62364,5363
1758101961.1459231,100,62364,5356
1758101961.185923,100,62384,5343
1758101961.225923,100,62384,5325
1758101961.265923,100,62384,5322
1758101961.3059232,100,62384,5329
1758101961.3459232,100,62400,5320
1758101961.3859231,100,62400,5324
1758101961.425923,100,62416,5323
1758101961.465923,100,62416,5328
1758101961.505923,100,62416,5322
1758101961.5459232,100,62432,5335
1758101961.5859232,100,62432,5344
1758101961.6259232,100,62451,5349
1758101961.665923,100,62451,5348
1758101961.705923,100,62451,5333
1758101961.745923,100,62468,5310
1758101961.785923,100,62468,5292
1758101961.8259232,100,62483,5297
1758101961.8659232,100,62483,5312
1758101961.9059231,100,62483,5316
1758101961.945923,100,62499,5321
1758101961.985923,100,62499,5305
1758101962.025923,100,62517,5325
1758101962.0659232,100,62517,5331
1758101962.1059232,100,62517,5335
1758101962.1459231,100,62533,5321
1758101962.185923,100,62533,5298
1758101962.225923,100,62548,5296
1758101962.265923,100,62548,5280
1758101962.3059232,100,62548,5290
1758101962.3459232,100,62566,5287
1758101962.3859231,100,62566,5283
1758101962.425923,100,62566,5291
1758101962.465923,100,62584,5288
1758101962.505923,100,62584,5297
1758101962.5459232,100,62600,5290
1758101962.5859232,100,62600,5275
1758101962.6259232,100,62600,5269
1758101962.665923,100,62615,5252
1758101962.705923,100,62615,5239
1758101962.745923,100,62632,5232
1758101962.785923,100,62632,5243
1758101962.8259232,100,62632,5250
1758101962.8659232,100,62649,5269
1758101962.9059231,100,62649,5274
1758101962.945923,100,62665,5261
1758101962.985923,100,62665,5266
1758101963.025923,100,62665,5262
1758101963.0659232,100,62682,5270
1758101963.1059232,100,62682,5268
1758101963.1459231,100,62697,5263
1758101963.185923,100,62697,5261
1758101963.225923,100,62697,5261
1758101963.265923,100,62714,5253
1758101963.3059232,100,62714,5269
1758101963.3459232,100,62731,5265
1758101963.3859231,100,62731,5283
1758101963.425923,100,62731,5294
1758101963.465923,100,62748,5289
1758101963.505923,100,62748,5265
1758101963.5459232,100,62762,5263
1758101963.5859232,100,62762,5252
1758101963.6259232,100,62762,5239
1758101963.665923,100,62779,5246
1758101963.705923,100,62779,5249
1758101963.745923,100,62800,5253
1758101963.785923,100,62800,5255
1758101963.8259232,100,62800,5255
1758101963.8659232,100,62817,5260
1758101963.9059231,100,62817,5241
1758101963.945923,100,62817,5250
1758101963.985923,100,62831,5225
1758101964.025923,100,62831,5198
1758101964.0659232,100,62849,5209
1758101964.1059232,100,62849,5214
1758101964.1459231,100,62849,5206
1758101964.185923,100,62865,5218
1758101964.225923,100,62865,5226
1758101964.265923,100,62882,5224
1758101964.3059232,100,62882,5235
1758101964.3459232,100,62882,5229
1758101964.3859231,100,62897,5221
1758101964.425923,100,62897,5195
1758101964.465923,100,62916,5180
1758101964.505923,100,62916,5179
1758101964.5459232,100,62916,5192
1758101964.5859232,100,62932,5221
1758101964.6259232,100,62932,5232
1758101964.665923,100,62949,5255
1758101964.705923,100,62949,5256
1758101964.745923,100,62949,5258
1758101964.785923,100,62966,5255
1758101964.8259232,100,62966,5236
1758101964.8659232,100,62966,5224
1758101964.9059231,100,62983,5228
1758101964.945923,100,62983,5221
1758101964.985923,100,63001,5233
1758101965.025923,100,63001,5232
1758101965.0659232,100,63001,5240
1758101965.1059232,100,63021,5242
1758101965.1459231,100,63021,5268
1758101965.185923,100,63037,5277
1758101965.225923,100,63037,5272
1758101965.265923,100,63037,5255
1758101965.3059232,100,63052,5232
1758101965.3459232,100,63052,5221
1758101965.3859231,100,63069,5205
1758101965.425923,100,63069,5211
1758101965.465923,100,63069,5204
1758101965.505923,100,63086,5226
1758101965.5459232,100,63086,5231
1758101965.5859232,100,63102,5226
1758101965.6259232,100,63102,5239
1758101965.665923,100,63102,5243
1758101965.705923,100,63118,5232
1758101965.745923,100,63118,5214
1758101965.785923,100,63134,5186
1758101965.8259232,100,63134,5179
1758101965.8659232,100,63134,5176
1758101965.9059231,100,63151,5189
1758101965.945923,100,63151,5204
1758101965.985923,100,63167,5217
1758101966.025923,100,63167,5227
1758101966.0659232,100,63167,5253
1758101966.1059232,100,63183,5269
1758101966.1459231,100,63183,5250
1758101966.185923,100,63199,5247
1758101966.225923,100,63199,5238
1758101966.265923,100,63199,5233
1758101966.3059232,100,63221,5235
1758101966.3459232,100,63221,5238
1758101966.3859231,100,63221,5247
1758101966.425923,100,63221,5252
1758101966.465923,100,63238,5264
1758101966.505923,100,63238,5272
1758101966.5459232,100,63255,5265
1758101966.5859232,100,63255,5264
1758101966.6259232,100,63255,5249
1758101966.665923,100,63270,5230
1758101966.705923,100,63270,5218
1758101966.745923,100,63289,5226
1758101966.785923,100,63289,5248
1758101966.8259232,100,63289,5249
1758101966.8659232,100,63305,5241
1758101966.9059231,100,63305,5249
1758101966.945923,100,63322,5259
1758101966.985923,100,63322,5241
1758101967.025923,100,63322,5228
1758101967.0659232,100,63339,5199
1758101967.1059232,100,63339,5204
1758101967.1459231,100,63339,5202
1758101967.185923,100,63354,5223
1758101967.225923,100,63354,5216
1758101967.265923,100,63372,5246
1758101967.3059232,100,63372,5242
1758101967.3459232,100,63372,5255
1758101967.3859231,100,63390,5244
1758101967.425923,100,63390,5231
1758101967.465923,100,63406,5209
1758101967.505923,100,63406,5195
1758101967.5459232,100,63406,5200
1758101967.5859232,100,63421,5211
1758101967.6259232,100,63421,5221
1758101967.665923,100,63437,5230
1758101967.705923,100,63437,5255
1758101967.745923,100,63437,5258
1758101967.785923,100,63455,5295
1758101967.8259232,100,63455,5285
1758101967.8659232,100,63473,5260
1758101967.9059231,100,63473,5240
1758101967.945923,100,63473,5237
1758101967.985923,100,63488,5241
1758101968.025923,100,63488,5250
1758101968.0659232,100,63488,5253
1758101968.1059232,100,63505,5268
1758101968.1459231,100,63505,5281
1758101968.185923,100,63524,5294
1758101968.225923,100,63524,5286
1758101968.265923,100,63524,5284
1758101968.3059232,100,63540,5283
1758101968.3459232,100,63540,5270
1758101968.3859231,100,63557,5258
1758101968.425923,100,63557,5241
1758101968.465923,100,63557,5248
1758101968.505923,100,63572,5249
1758101968.5459232,100,63572,5256
1758101968.5859232,100,63589,5268
1758101968.6259232,100,63589,5279
1758101968.665923,100,63589,5289
1758101968.705923,100,63606,5276
1758101968.745923,100,63606,5266
1758101968.785923,100,63625,5241
1758101968.8259232,100,63625,5249
1758101968.8659232,100,63625,5249
1758101968.9059231,100,63639,5249
1758101968.945923,100,63639,5258
1758101968.985923,100,63660,5255
1758101969.025923,100,63660,5258
1758101969.0659232,100,63660,5268
1758101969.1059232,100,63677,5271
1758101969.1459231,100,63677,5275
1758101969.185923,100,63694,5269
1758101969.225923,100,63694,5263
1758101969.265923,100,63694,5270
1758101969.3059232,100,63708,5287
1758101969.3459232,100,63708,5295
1758101969.3859231,100,63726,5320
1758101969.425923,100,63726,5323
1758101969.465923,100,63726,5331
1758101969.505923,100,63742,5337
1758101969.5459232,100,63742,5322
1758101969.5859232,100,63742,5307
1758101969.6259232,100,63759,5315
1758101969.665923,100,63759,5302
1758101969.705923,100,63774,5321
1758101969.745923,100,63774,5326
1758101969.785923,100,63793,5328
1758101969.8259232,100,63793,5352
1758101969.8659232,100,63793,5351
1758101969.9059231,100,63809,5351
1758101969.945923,100,63809,5356
1758101969.985923,100,63826,5320
1758101970.025923,100,63826,5295
1758101970.0659232,100,63826,5282
1758101970.1059232,100,63841,5274
1758101970.1459231,100,63841,5279
1758101970.185923,100,63858,5301
1758101970.225923,100,63858,5298
1758101970.265923,100,63858,5311
1758101970.3059232,100,63876,5329
1758101970.3459232,100,63876,5339
1758101970.3859231,100,63876,5318
1758101970.425923,100,63894,5311
1758101970.465923,100,63894,5288
1758101970.505923,100,63911,5291
1758101970.5459232,100,63911,5274
1758101970.5859232,100,63911,5282
1758101970.6259232,100,63927,5295
1758101970.665923,100,63927,5321
1758101970.705923,100,63944,5334
1758101970.745923,100,63944,5360
1758101970.785923,100,63944,5364
1758101970.8259232,100,63961,5368
1758101970.8659232,100,63961,5358
1758101970.9059231,100,63977,5365
1758101970.945923,100,63977,5365
1758101970.985923,100,63977,5354
1758101971.025923,100,63995,5358
1758101971.0659232,100,63995,5362
1758101971.1059232,100,64011,5377
1758101971.1459231,100,64011,5393
1758101971.185923,100,64011,5406
1758101971.225923,100,64028,5399
1758101971.265923,100,64028,5373
1758101971.3059232,100,64044,5353
1758101971.3459232,100,64044,5356
1758101971.3859231,100,64044,5359
1758101971.425923,100,64067,5368
1758101971.465923,100,64067,5389
1758101971.505923,100,64067,5396
1758101971.5459232,100,64067,5389
1758101971.5859232,100,64083,5378
1758101971.6259232,100,64083,5366
1758101971.665923,100,64099,5352
1758101971.705923,100,64099,5350
1758101971.745923,100,64099,5339
1758101971.785923,100,64116,5351
1758101971.8259232,100,64116,5353
1758101971.8659232,100,64135,5363
1758101971.9059231,100,64135,5379
1758101971.945923,100,64135,5394
1758101971.985923,100,64150,5401
1758101972.025923,100,64150,5381
1758101972.0659232,100,64167,5368
1758101972.1059232,100,64167,5346
1758101972.1459231,100,64167,5330
1758101972.185923,100,64183,5325
1758101972.225923,100,64183,5323
1758101972.265923,100,64200,5343
1758101972.3059232,100,64200,5368
1758101972.3459232,100,64200,5391
1758101972.3859231,100,64217,5406
1758101972.425923,100,64217,5422
1758101972.465923,100,64217,5402
1758101972.505923,100,64232,5380
1758101972.5459232,100,64232,5364
1758101972.5859232,100,64248,5334
1758101972.6259232,100,64248,5348
1758101972.665923,100,64248,5363
1758101972.705923,100,64266,5385
1758101972.745923,100,64266,5383
1758101972.785923,100,64282,5409
1758101972.8259232,100,64282,5422
1758101972.8659232,100,64282,5390
1758101972.9059231,100,64299,5384
1758101972.945923,100,64299,5358
1758101972.985923,100,64315,5361
1758101973.025923,100,64315,5362
1758101973.0659232,100,64315,5349
1758101973.1059232,100,64333,5362
1758101973.1459231,100,64333,5373
1758101973.185923,100,64351,5370
1758101973.225923,100,64351,5383
1758101973.265923,100,64351,5367
1758101973.3059232,100,64366,5359
1758101973.3459232,100,64366,5327
1758101973.3859231,100,64383,5327
1758101973.425923,100,64383,5333
1758101973.465923,100,64383,5335
1758101973.505923,100,64400,5350
1758101973.5459232,100,64400,5353
1758101973.5859232,100,64416,5370
1758101973.6259232,100,64416,5347
1758101973.665923,100,64416,5362
1758101973.705923,100,64433,5350
1758101973.745923,100,64433,5344
1758101973.785923,100,64433,5334
1758101973.8259232,100,64450,5354
1758101973.8659232,100,64450,5369
1758101973.9059231,100,64467,5360
1758101973.945923,100,64467,5379
1758101973.985923,100,64467,5378
1758101974.025923,100,64483,5402
1758101974.0659232,100,64483,5397
1758101974.1059232,100,64500,5362
1758101974.1459231,100,64500,5333
1758101974.185923,100,64500,5327
1758101974.225923,100,64515,5328
1758101974.265923,100,64515,5328
1758101974.3059232,100,64532,5354
1758101974.3459232,100,64532,5348
1758101974.3859231,100,64532,5350
1758101974.425923,100,64551,5350
1758101974.465923,100,64551,5334
1758101974.505923,100,64568,5329
1758101974.5459232,100,64568,5301
1758101974.5859232,100,64568,5291
1758101974.6259232,100,64584,5278
1758101974.665923,100,64584,5261
1758101974.705923,100,64602,5269
1758101974.745923,100,64602,5277
1758101974.785923,100,64602,5284
1758101974.8259232,100,64618,5311
1758101974.8659232,100,64618,5328
1758101974.9059231,100,64635,5329
1758101974.945923,100,64635,5289
1758101974.985923,100,64635,5269
1758101975.025923,100,64650,5265
1758101975.0659232,100,64650,5264
1758101975.1059232,100,64650,5267
1758101975.1459231,100,64667,5295
1758101975.185923,100,64667,5323
1758101975.225923,100,64683,5332
1758101975.265923,100,64683,5364
1758101975.3059232,100,64683,5365
1758101975.3459232,100,64700,5351
1758101975.3859231,100,64700,5330
1758101975.425923,100,64715,5316
1758101975.465923,100,64715,5301
1758101975.505923,100,64715,5309
1758101975.5459232,100,64732,5319
1758101975.5859232,100,64732,5325
1758101975.6259232,100,64748,5340
1758101975.665923,100,64748,5349
1758101975.705923,100,64748,5363
1758101975.745923,100,64766,5334
1758101975.785923,100,64766,5309
1758101975.8259232,100,64782,5304
1758101975.8659232,100,64782,5296
1758101975.9059231,100,64782,5293
1758101975.945923,100,64799,5296
1758101975.985923,100,64799,5315
1758101976.025923,100,64816,5314
1758101976.0659232,100,64816,5318
1758101976.1059232,100,64816,5307
1758101976.1459231,100,64833,5299
1758101976.185923,100,64833,5267
1758101976.225923,100,64848,5241
1758101976.265923,100,64848,5232
1758101976.3059232,100,64848,5223
1758101976.3459232,100,64864,5235
1758101976.3859231,100,64864,5258
1758101976.425923,100,64881,5276
1758101976.465923,100,64881,5272
1758101976.505923,100,64881,5292
1758101976.5459232,100,64899,5268
1758101976.5859232,100,64899,5258
1758101976.6259232,100,64899,5227
1758101976.665923,100,64916,5224
1758101976.705923,100,64916,5228
1758101976.745923,100,64916,5251
1758101976.785923,100,64933,5267
1758101976.8259232,100,64933,5296
1758101976.8659232,100,64947,5301
1758101976.9059231,100,64947,5320
1758101976.945923,100,64947,5300
1758101976.985923,100,64964,5263
1758101977.025923,100,64964,5265
1758101977.0659232,100,64964,5254
1758101977.1059232,100,64981,5265
1758101977.1459231,100,64981,5288
1758101977.185923,100,64998,5291
1758101977.225923,100,64998,5322
1758101977.265923,100,64998,5318
1758101977.3059232,100,65014,5335
1758101977.3459232,100,65014,5335
1758101977.3859231,100,65032,5313
1758101977.425923,100,65032,5273
1758101977.465923,100,65032,5247
1758101977.505923,100,65048,5228
1758101977.5459232,100,65048,5223
1758101977.5859232,100,65065,5246
1758101977.6259232,100,65065,5244
1758101977.665923,100,65065,5249
1758101977.705923,100,65082,5240
1758101977.745923,100,65082,5243
1758101977.785923,100,65099,5206
1758101977.8259232,100,65099,5187
1758101977.8659232,100,65099,5186
1758101977.9059231,100,65115,5183
1758101977.945923,100,65115,5196
1758101977.985923,100,65132,5198
1758101978.025923,100,65132,5202
1758101978.0659232,100,65132,5231
1758101978.1059232,100,65147,5260
1758101978.1459231,100,65147,5288
1758101978.185923,100,65164,5279
1758101978.225923,100,65164,5271
1758101978.265923,100,65164,5243
1758101978.3059232,100,65180,5226
1758101978.3459232,100,65180,5234
1758101978.3859231,100,65198,5238
1758101978.425923,100,65198,5258
1758101978.465923,100,65198,5268
1758101978.505923,100,65213,5261
1758101978.5459232,100,65213,5276
1758101978.5859232,100,65229,5274
1758101978.6259232,100,65229,5260
1758101978.665923,100,65229,5236
1758101978.705923,100,65246,5209
1758101978.745923,100,65246,5194
1758101978.785923,100,65267,5202
1758101978.8259232,100,65267,5206
1758101978.8659232,100,65267,5195
1758101978.9059231,100,65283,5202
1758101978.945923,100,65283,5202
1758101978.985923,100,65299,5202
1758101979.025923,100,65299,5156
1758101979.0659232,100,65299,5129
1758101979.1059232,100,65315,5110
1758101979.1459231,100,65315,5107
1758101979.185923,100,65332,5114
1758101979.225923,100,65332,5119
1758101979.265923,100,65332,5132
1758101979.3059232,100,65348,5145
1758101979.3459232,100,65348,5165
1758101979.3859231,100,65348,5181
1758101979.425923,100,65364,5152
1758101979.465923,100,65364,5125
1758101979.505923,100,65380,5100
1758101979.5459232,100,65380,5104
1758101979.5859232,100,65380,5134
1758101979.6259232,100,65397,5162
1758101979.665923,100,65397,5188
1758101979.705923,100,65414,5205
1758101979.745923,100,65414,5231
1758101979.785923,100,65414,5233
1758101979.8259232,100,65431,5196
1758101979.8659232,100,65431,5172
1758101979.9059231,100,65447,5149
1758101979.945923,100,65447,5143
1758101979.985923,100,65447,5149
1758101980.025923,100,65465,5158
1758101980.0659232,100,65465,5184
1758101980.1059232,100,65481,5189
1758101980.1459231,100,65481,5223
1758101980.185923,100,65481,5231
1758101980.225923,100,65496,5195
1758101980.265923,100,65496,5162
1758101980.3059232,100,65514,5136
1758101980.3459232,100,65514,5124
1758101980.3859231,100,65514,5122
1758101980.425923,100,65532,5126
1758101980.465923,100,65532,5135
1758101980.505923,100,12,5173
1758101980.5459232,100,12,5165
1758101980.5859232,100,12,5196
1758101980.6259232,100,27,5173
1758101980.665923,100,27,5141
1758101980.705923,100,27,5117
1758101980.745923,100,44,5098
1758101980.785923,100,44,5110
1758101980.8259232,100,61,5133
1758101980.8659232,100,61,5155
1758101980.9059231,100,61,5175
1758101980.945923,100,77,5205
1758101980.985923,100,77,5207
1758101981.025923,100,94,5197
1758101981.0659232,100,94,5158
1758101981.1059232,100,94,5151
1758101981.1459231,100,111,5137
1758101981.185923,100,111,5150
1758101981.225923,100,130,5170
1758101981.265923,100,130,5192
1758101981.3059232,100,130,5217
1758101981.3459232,100,147,5254
1758101981.3859231,100,147,5270
1758101981.425923,100,164,5255
1758101981.465923,100,164,5207
1758101981.505923,100,164,5188
1758101981.5459232,100,178,5179
1758101981.5859232,100,178,5191
1758101981.6259232,100,202,5210
1758101981.665923,100,202,5236
1758101981.705923,100,202,5245
1758101981.745923,100,219,5251
1758101981.785923,100,219,5263
1758101981.8259232,100,219,5261
1758101981.8659232,100,238,5241
1758101981.9059231,100,238,5230
1758101981.945923,100,252,5185
1758101981.985923,100,252,5204
1758101982.025923,100,252,5205
1758101982.0659232,100,270,5228
1758101982.1059232,100,270,5234
1758101982.1459231,100,286,5236
1758101982.185923,100,286,5244
1758101982.225923,100,286,5233
1758101982.265923,100,303,5205
1758101982.3059232,100,303,5182
1758101982.3459232,100,318,5189
1758101982.3859231,100,318,5191
1758101982.425923,100,318,5202
1758101982.465923,100,335,5225
1758101982.505923,100,335,5232
1758101982.5459232,100,351,5260
1758101982.5859232,100,351,5270
1758101982.6259232,100,351,5276
1758101982.665923,100,370,5240
1758101982.705923,100,370,5218
1758101982.745923,100,386,5214
1758101982.785923,100,386,5236
1758101982.8259232,100,386,5240
1758101982.8659232,100,402,5272
1758101982.9059231,100,402,5273
1758101982.945923,100,418,5303
1758101982.985923,100,418,5298
1758101983.025923,100,418,5292
1758101983.0659232,100,436,5275
1758101983.1059232,100,436,5237
1758101983.1459231,100,452,5238
1758101983.185923,100,452,5234
1758101983.225923,100,452,5247
1758101983.265923,100,467,5259
1758101983.3059232,100,467,5289
1758101983.3459232,100,467,5303
1758101983.3859231,100,484,5324
1758101983.425923,100,484,5341
1758101983.465923,100,503,5289
1758101983.505923,100,503,5278
1758101983.5459232,100,503,5257
1758101983.5859232,100,519,5262
1758101983.6259232,100,519,5276
1758101983.665923,100,535,5277
1758101983.705923,100,535,5295
1758101983.745923,100,535,5316
1758101983.785923,100,553,5333
1758101983.8259232,100,553,5340
1758101983.8659232,100,572,5299
1758101983.9059231,100,572,5277
1758101983.945923,100,572,5282
1758101983.985923,100,588,5279
1758101984.025923,100,588,5283
1758101984.0659232,100,604,5313
1758101984.1059232,100,604,5333
1758101984.1459231,100,604,5340
1758101984.185923,100,620,5343
1758101984.225923,100,620,5347
1758101984.265923,100,637,5327
1758101984.3059232,100,637,5311
1758101984.3459232,100,637,5313
1758101984.3859231,100,654,5317
1758101984.425923,100,654,5336
1758101984.465923,100,669,5356
1758101984.505923,100,669,5372
1758101984.5459232,100,669,5384
1758101984.5859232,100,685,5379
1758101984.6259232,100,685,5369
1758101984.665923,100,685,5344
1758101984.705923,100,703,5315
1758101984.745923,100,703,5301
1758101984.785923,100,719,5316
1758101984.8259232,100,719,5342
1758101984.8659232,100,719,5371
1758101984.9059231,100,734,5378
1758101984.945923,100,734,5382
1758101984.985923,100,752,5407
1758101985.025923,100,752,5409
1758101985.0659232,100,752,5378
1758101985.1059232,100,770,5340
1758101985.1459231,100,770,5332
1758101985.185923,100,786,5313
1758101985.225923,100,786,5317
1758101985.265923,100,786,5328
1758101985.3059232,100,802,5349
1758101985.3459232,100,802,5359
1758101985.3859231,100,818,5358
1758101985.425923,100,818,5365
1758101985.465923,100,818,5359
1758101985.505923,100,837,5353
1758101985.5459232,100,837,5341
1758101985.5859232,100,853,5339
1758101985.6259232,100,853,5350
1758101985.665923,100,853,5365
1758101985.705923,100,871,5376
1758101985.745923,100,871,5389
1758101985.785923,100,885,5409
1758101985.8259232,100,885,5409
1758101985.8659232,100,885,5391
1758101985.9059231,100,902,5372
1758101985.945923,100,902,5381
1758101985.985923,100,919,5393
1758101986.025923,100,919,5403
1758101986.0659232,100,919,5418
1758101986.1059232,100,938,5427
1758101986.1459231,100,938,5432
1758101986.185923,100,952,5446
1758101986.225923,100,952,5431
1758101986.265923,100,952,5415
1758101986.3059232,100,969,5399
1758101986.3459232,100,969,5395
1758101986.3859231,100,986,5402
1758101986.425923,100,986,5415
1758101986.465923,100,986,5403
1758101986.505923,100,1005,5429
1758101986.5459232,100,1005,5440
1758101986.5859232,100,1019,5431
1758101986.6259232,100,1019,5428
1758101986.665923,100,1019,5399
1758101986.705923,100,1042,5387
1758101986.745923,100,1042,5357
1758101986.785923,100,1058,5364
1758101986.8259232,100,1058,5378
1758101986.8659232,100,1058,5386
1758101986.9059231,100,1075,5415
1758101986.945923,100,1075,5429
1758101986.985923,100,1075,5433
1758101987.025923,100,1090,5442
1758101987.0659232,100,1090,5428
1758101987.1059232,100,1107,5413
1758101987.1459231,100,1107,5397
1758101987.185923,100,1107,5387
1758101987.225923,100,1123,5420
1758101987.265923,100,1123,5425
1758101987.3059232,100,1140,5453
1758101987.3459232,100,1140,5467
1758101987.3859231,100,1140,5467
1758101987.425923,100,1158,5465
1758101987.465923,100,1158,5447
1758101987.505923,100,1174,5433
1758101987.5459232,100,1174,5426
1758101987.5859232,100,1174,5424
1758101987.6259232,100,1190,5440
1758101987.665923,100,1190,5437
1758101987.705923,100,1208,5453
1758101987.745923,100,1208,5472
1758101987.785923,100,1208,5474
1758101987.8259232,100,1223,5473
1758101987.8659232,100,1223,5440
1758101987.9059231,100,1241,5415
1758101987.945923,100,1241,5396
1758101987.985923,100,1241,5405
1758101988.025923,100,1258,5401
1758101988.0659232,100,1258,5410
1758101988.1059232,100,1275,5414
1758101988.1459231,100,1275,5417
1758101988.185923,100,1275,5417
1758101988.225923,100,1291,5392
1758101988.265923,100,1291,5380
1758101988.3059232,100,1307,5363
1758101988.3459232,100,1307,5381
1758101988.3859231,100,1307,5386
1758101988.425923,100,1323,5395
1758101988.465923,100,1323,5415
1758101988.505923,100,1323,5430
1758101988.5459232,100,1340,5432
1758101988.5859232,100,1340,5441
1758101988.6259232,100,1356,5430
1758101988.665923,100,1356,5399
1758101988.705923,100,1356,5392
1758101988.745923,100,1374,5395
1758101988.785923,100,1374,5399
1758101988.8259232,100,1390,5427
1758101988.8659232,100,1390,5434
1758101988.9059231,100,1390,5412
1758101988.945923,100,1407,5437
1758101988.985923,100,1407,5444
1758101989.025923,100,1424,5442
1758101989.0659232,100,1424,5419
1758101989.1059232,100,1424,5402
1758101989.1459231,100,1439,5397
1758101989.185923,100,1439,5409
1758101989.225923,100,1457,5414
1758101989.265923,100,1457,5421
1758101989.3059232,100,1457,5421
1758101989.3459232,100,1475,5430
1758101989.3859231,100,1475,5423
1758101989.425923,100,1491,5394
1758101989.465923,100,1491,5358
1758101989.505923,100,1491,5347
1758101989.5459232,100,1506,5347
1758101989.5859232,100,1506,5358
1758101989.6259232,100,1522,5374
1758101989.665923,100,1522,5365
1758101989.705923,100,1522,5376
1758101989.745923,100,1540,5386
1758101989.785923,100,1540,5373
1758101989.8259232,100,1540,5370
1758101989.8659232,100,1556,5360
1758101989.9059231,100,1556,5357
1758101989.945923,100,1556,5346
1758101989.985923,100,1576,5369
1758101990.025923,100,1576,5387
1758101990.0659232,100,1576,5412
1758101990.1059232,100,1592,5421
1758101990.1459231,100,1592,5432
1758101990.185923,100,1607,5429
1758101990.225923,100,1607,5420
1758101990.265923,100,1607,5415
1758101990.3059232,100,1623,5410
1758101990.3459232,100,1623,5414
1758101990.3859231,100,1641,5406
1758101990.425923,100,1641,5446
1758101990.465923,100,1641,5455
1758101990.505923,100,1657,5475
1758101990.5459232,100,1657,5477
1758101990.5859232,100,1674,5466
1758101990.6259232,100,1674,5439
1758101990.665923,100,1674,5431
1758101990.705923,100,1691,5424
1758101990.745923,100,1691,5439
1758101990.785923,100,1710,5457
1758101990.8259232,100,1710,5471
1758101990.8659232,100,1710,5479
1758101990.9059231,100,1726,5491
1758101990.945923,100,1726,5468
1758101990.985923,100,1742,5450
1758101991.025923,100,1742,5432
1758101991.0659232,100,1742,5425
1758101991.1059232,100,1758,5420
1758101991.1459231,100,1758,5423
1758101991.185923,100,1758,5424
1758101991.225923,100,1777,5425
1758101991.265923,100,1777,5430
1758101991.3059232,100,1793,5448
1758101991.3459232,100,1793,5463
1758101991.3859231,100,1793,5466
1758101991.425923,100,1809,5438
1758101991.465923,100,1809,5439
1758101991.505923,100,1827,5438
1758101991.5459232,100,1827,5440
1758101991.5859232,100,1827,5480
1758101991.6259232,100,1844,5473
1758101991.665923,100,1844,5491
1758101991.705923,100,1861,5491
1758101991.745923,100,1861,5500
1758101991.785923,100,1861,5489
1758101991.8259232,100,1882,5495
1758101991.8659232,100,1882,5491
1758101991.9059231,100,1897,5488
1758101991.945923,100,1897,5494
1758101991.985923,100,1897,5519
1758101992.025923,100,1915,5518
1758101992.0659232,100,1915,5524
1758101992.1059232,100,1931,5555
1758101992.1459231,100,1931,5533
1758101992.185923,100,1931,5523
1758101992.225923,100,1948,5511
1758101992.265923,100,1948,5506
1758101992.3059232,100,1965,5519
1758101992.3459232,100,1965,5537
1758101992.3859231,100,1965,5532
1758101992.425923,100,1982,5540
1758101992.465923,100,1982,5532
1758101992.505923,100,1982,5523
1758101992.5459232,100,1998,5525
1758101992.5859232,100,1998,5514
1758101992.6259232,100,2015,5508
1758101992.665923,100,2015,5500
1758101992.705923,100,2015,5515
1758101992.745923,100,2032,5513
1758101992.785923,100,2032,5517
1758101992.8259232,100,2049,5541
1758101992.8659232,100,2049,5542
1758101992.9059231,100,2049,5555
1758101992.945923,100,2065,5548
1758101992.985923,100,2065,5528
1758101993.025923,100,2083,5547
1758101993.0659232,100,2083,5553
1758101993.1059232,100,2083,5551
1758101993.1459231,100,2097,5563
1758101993.185923,100,2097,5572
1758101993.225923,100,2114,5578
1758101993.265923,100,2114,5587
1758101993.3059232,100,2114,5581
1758101993.3459232,100,2131,5585
1758101993.3859231,100,2131,5580
1758101993.425923,100,2148,5582
1758101993.465923,100,2148,5567
1758101993.505923,100,2148,5598
1758101993.5459232,100,2162,5617
1758101993.5859232,100,2162,5614
1758101993.6259232,100,2179,5631
1758101993.665923,100,2179,5633
1758101993.705923,100,2179,5629
1758101993.745923,100,2198,5608
1758101993.785923,100,2198,5595
1758101993.8259232,100,2215,5605
1758101993.8659232,100,2215,5601
1758101993.9059231,100,2215,5605
1758101993.945923,100,2229,5609
1758101993.985923,100,2229,5615
1758101994.025923,100,2247,5632
1758101994.0659232,100,2247,5640
1758101994.1059232,100,2247,5618
1758101994.1459231,100,2263,5586
1758101994.185923,100,2263,5575
1758101994.225923,100,2280,5574
1758101994.265923,100,2280,5564
1758101994.3059232,100,2280,5576
1758101994.3459232,100,2296,5592
1758101994.3859231,100,2296,5608
1758101994.425923,100,2312,5620
1758101994.465923,100,2312,5607
1758101994.505923,100,2312,5592
1758101994.5459232,100,2328,5570
1758101994.5859232,100,2328,5574
1758101994.6259232,100,2346,5578
1758101994.665923,100,2346,5588
1758101994.705923,100,2346,5594
1758101994.745923,100,2364,5600
1758101994.785923,100,2364,5615
1758101994.8259232,100,2364,5614
1758101994.8659232,100,2379,5612
1758101994.9059231,100,2379,5623
1758101994.945923,100,2395,5630
1758101994.985923,100,2395,5626
1758101995.025923,100,2395,5629
1758101995.0659232,100,2413,5643
1758101995.1059232,100,2413,5658
1758101995.1459231,100,2429,5666
1758101995.185923,100,2429,5667
1758101995.225923,100,2429,5675
1758101995.265923,100,2444,5672
1758101995.3059232,100,2444,5683
1758101995.3459232,100,2461,5680
1758101995.3859231,100,2461,5684
1758101995.425923,100,2461,5691
1758101995.465923,100,2478,5680
1758101995.505923,100,2478,5693
1758101995.5459232,100,2494,5691
1758101995.5859232,100,2494,5699
1758101995.6259232,100,2494,5708
1758101995.665923,100,2510,5705
1758101995.705923,100,2510,5684
1758101995.745923,100,2526,5678
1758101995.785923,100,2526,5674
1758101995.8259232,100,2526,5685
1758101995.8659232,100,2545,5703
1758101995.9059231,100,2545,5707
1758101995.945923,100,2561,5708
1758101995.985923,100,2561,5729
1758101996.025923,100,2561,5727
1758101996.0659232,100,2577,5712
1758101996.1059232,100,2577,5705
1758101996.1459231,100,2593,5696
1758101996.185923,100,2593,5693
1758101996.225923,100,2593,5714
1758101996.265923,100,2610,5702
1758101996.3059232,100,2610,5719
1758101996.3459232,100,2610,5728
1758101996.3859231,100,2627,5733
1758101996.425923,100,2627,5747
1758101996.465923,100,2643,5734
1758101996.505923,100,2643,5731
1758101996.5459232,100,2643,5743
1758101996.5859232,100,2658,5724
1758101996.6259232,100,2658,5731
1758101996.665923,100,2676,5737
1758101996.705923,100,2676,5730
1758101996.745923,100,2676,5741
1758101996.785923,100,2692,5740
1758101996.8259232,100,2692,5738
1758101996.8659232,100,2716,5740
1758101996.9059231,100,2716,5723
1758101996.945923,100,2716,5709
1758101996.985923,100,2732,5706
1758101997.025923,100,2732,5702
1758101997.0659232,100,2732,5702
1758101997.1059232,100,2748,5727
1758101997.1459231,100,2748,5726
1758101997.185923,100,2748,5725
1758101997.225923,100,2764,5727
1758101997.265923,100,2764,5704
1758101997.3059232,100,2782,5682
1758101997.3459232,100,2782,5651
1758101997.3859231,100,2782,5642
1758101997.425923,100,2798,5651
1758101997.465923,100,2798,5664
1758101997.505923,100,2813,5660
1758101997.5459232,100,2813,5655
1758101997.5859232,100,2813,5652
1758101997.6259232,100,2829,5683
1758101997.665923,100,2829,5668
1758101997.705923,100,2847,5646
1758101997.745923,100,2847,5612
1758101997.785923,100,2847,5618
1758101997.8259232,100,2863,5610
1758101997.8659232,100,2863,5615
1758101997.9059231,100,2878,5620
1758101997.945923,100,2878,5634
1758101997.985923,100,2878,5638
1758101998.025923,100,2895,5639
1758101998.0659232,100,2895,5645
1758101998.1059232,100,2912,5624
1758101998.1459231,100,2912,5619
1758101998.185923,100,2912,5608
1758101998.225923,100,2928,5599
1758101998.265923,100,2928,5611
1758101998.3059232,100,2946,5608
1758101998.3459232,100,2946,5610
1758101998.3859231,100,2946,5622
1758101998.425923,100,2962,5641
1758101998.465923,100,2962,5644
1758101998.505923,100,2962,5625
1758101998.5459232,100,2979,5601
1758101998.5859232,100,2979,5595
1758101998.6259232,100,2995,5593
1758101998.665923,100,2995,5608
1758101998.705923,100,2995,5622
1758101998.745923,100,3013,5626
1758101998.785923,100,3013,5638
1758101998.8259232,100,3029,5647
1758101998.8659232,100,3029,5655
1758101998.9059231,100,3029,5647
1758101998.945923,100,3046,5643
1758101998.985923,100,3046,5634
1758101999.025923,100,3063,5617
1758101999.0659232,100,3063,5637
1758101999.1059232,100,3063,5643
1758101999.1459231,100,3079,5649
1758101999.185923,100,3079,5666
1758101999.225923,100,3094,5672
1758101999.265923,100,3094,5686
1758101999.3059232,100,3094,5704
1758101999.3459232,100,3114,5689
1758101999.3859231,100,3114,5669
1758101999.425923,100,3130,5657
1758101999.465923,100,3130,5650
1758101999.505923,100,3130,5656
1758101999.5459232,100,3147,5680
1758101999.5859232,100,3147,5679
1758101999.6259232,100,3162,5692
1758101999.665923,100,3162,5694
1758101999.705923,100,3162,5710
1758101999.745923,100,3179,5713
1758101999.785923,100,3179,5700
1758101999.8259232,100,3179,5688
1758101999.8659232,100,3195,5670
1758101999.9059231,100,3195,5665
1758101999.945923,100,3212,5682
1758101999.985923,100,3212,5691
1758102000.025923,100,3212,5695
1758102000.0659232,100,3227,5687
1758102000.1059232,100,3227,5695
1758102000.1459231,100,3244,5705
1758102000.185923,100,3244,5704
1758102000.225923,100,3244,5680
1758102000.265923,100,3260,5640
1758102000.3059232,100,3260,5619
1758102000.3459232,100,3278,5604
1758102000.3859231,100,3278,5598
1758102000.425923,100,3278,5593
1758102000.465923,100,3292,5601
1758102000.505923,100,3292,5603
1758102000.5459232,100,3309,5622
1758102000.5859232,100,3309,5627
1758102000.6259232,100,3309,5619
1758102000.665923,100,3326,5606
1758102000.705923,100,3326,5605
1758102000.745923,100,3343,5610
1758102000.785923,100,3343,5617
1758102000.8259232,100,3343,5644
1758102000.8659232,100,3357,5634
1758102000.9059231,100,3357,5644
1758102000.945923,100,3374,5651
1758102000.985923,100,3374,5667
1758102001.025923,100,3374,5677
1758102001.0659232,100,3391,5687
1758102001.1059232,100,3391,5687
1758102001.1459231,100,3391,5678
1758102001.185923,100,3408,5677
1758102001.225923,100,3408,5682
1758102001.265923,100,3425,5701
1758102001.3059232,100,3425,5702
1758102001.3459232,100,3425,5702
1758102001.3859231,100,3442,5714
1758102001.425923,100,3442,5732
1758102001.465923,100,3458,5754
1758102001.505923,100,3458,5755
1758102001.5459232,100,3458,5760
1758102001.5859232,100,3475,5740
1758102001.6259232,100,3475,5744
1758102001.665923,100,3492,5744
1758102001.705923,100,3492,5761
1758102001.745923,100,3492,5765
1758102001.785923,100,3507,5788
1758102001.8259232,100,3507,5797
1758102001.8659232,100,3523,5804
1758102001.9059231,100,3523,5814
1758102001.945923,100,3523,5833
1758102001.985923,100,3541,5827
1758102002.025923,100,3541,5792
1758102002.0659232,100,3562,5797
1758102002.1059232,100,3562,5795
1758102002.1459231,100,3562,5797
1758102002.185923,100,3577,5812
1758102002.225923,100,3577,5833
1758102002.265923,100,3593,5834
1758102002.3059232,100,3593,5847
1758102002.3459232,100,3593,5847
1758102002.3859231,100,3611,5838
1758102002.425923,100,3611,5829
1758102002.465923,100,3627,5810
1758102002.505923,100,3627,5801
1758102002.5459232,100,3627,5806
1758102002.5859232,100,3642,5818
1758102002.6259232,100,3642,5816
1758102002.665923,100,3661,5820
1758102002.705923,100,3661,5838
1758102002.745923,100,3661,5842
1758102002.785923,100,3678,5860
1758102002.8259232,100,3678,5853
1758102002.8659232,100,3694,5842
1758102002.9059231,100,3694,5804
1758102002.945923,100,3694,5799
1758102002.985923,100,3710,5795
1758102003.025923,100,3710,5803
1758102003.0659232,100,3728,5792
1758102003.1059232,100,3728,5831
1758102003.1459231,100,3728,5834
1758102003.185923,100,3745,5843
1758102003.225923,100,3745,5851
1758102003.265923,100,3761,5842
1758102003.3059232,100,3761,5839
1758102003.3459232,100,3761,5811
1758102003.3859231,100,3778,5778
1758102003.425923,100,3778,5770
1758102003.465923,100,3778,5774
1758102003.505923,100,3795,5789
1758102003.5459232,100,3795,5780
1758102003.5859232,100,3812,5795
1758102003.6259232,100,3812,5806
1758102003.665923,100,3812,5808
1758102003.705923,100,3831,5827
1758102003.745923,100,3831,5810
1758102003.785923,100,3848,5802
1758102003.8259232,100,3848,5779
1758102003.8659232,100,3848,5780
1758102003.9059231,100,3862,5772
1758102003.945923,100,3862,5773
1758102003.985923,100,3882,5779
1758102004.025923,100,3882,5794
1758102004.0659232,100,3882,5799
1758102004.1059232,100,3898,5816
1758102004.1459231,100,3898,5822
1758102004.185923,100,3915,5830
1758102004.225923,100,3915,5804
1758102004.265923,100,3915,5781
1758102004.3059232,100,3930,5790
1758102004.3459232,100,3930,5783
1758102004.3859231,100,3949,5799
1758102004.425923,100,3949,5790
1758102004.465923,100,3949,5794
1758102004.505923,100,3965,5792
1758102004.5459232,100,3965,5804
1758102004.5859232,100,3982,5831
1758102004.6259232,100,3982,5832
1758102004.665923,100,3982,5830
1758102004.705923,100,3997,5800
1758102004.745923,100,3997,5794
1758102004.785923,100,3997,5792
1758102004.8259232,100,4014,5801
1758102004.8659232,100,4014,5812
1758102004.9059231,100,4032,5822
1758102004.945923,100,4032,5818
1758102004.985923,100,4032,5825
1758102005.025923,100,4050,5834
1758102005.0659232,100,4050,5832
1758102005.1059232,100,4064,5837
1758102005.1459231,100,4064,5815
1758102005.185923,100,4064,5803
1758102005.225923,100,4081,5789
1758102005.265923,100,4081,5795
1758102005.3059232,100,4100,5807
1758102005.3459232,100,4100,5818
1758102005.3859231,100,4100,5825
1758102005.425923,100,4117,5828
1758102005.465923,100,4117,5832
1758102005.505923,100,4131,5833
1758102005.5459232,100,4131,5825
1758102005.5859232,100,4131,5803
1758102005.6259232,100,4148,5798
1758102005.665923,100,4148,5799
1758102005.705923,100,4165,5795
1758102005.745923,100,4165,5788
1758102005.785923,100,4165,5797
1758102005.8259232,100,4184,5818
1758102005.8659232,100,4184,5824
1758102005.9059231,100,4199,5836
1758102005.945923,100,4199,5834
1758102005.985923,100,4199,5819
1758102006.025923,100,4216,5792
1758102006.0659232,100,4216,5774
1758102006.1059232,100,4232,5777
1758102006.1459231,100,4232,5797
1758102006.185923,100,4232,5783
1758102006.225923,100,4251,5786
1758102006.265923,100,4251,5789
1758102006.3059232,100,4251,5827
1758102006.3459232,100,4268,5823
1758102006.3859231,100,4268,5828
1758102006.425923,100,4283,5829
1758102006.465923,100,4283,5797
1758102006.505923,100,4283,5771
1758102006.5459232,100,4299,5764
1758102006.5859232,100,4299,5760
1758102006.6259232,100,4317,5775
1758102006.665923,100,4317,5774
1758102006.705923,100,4317,5788
1758102006.745923,100,4333,5778
1758102006.785923,100,4333,5787
1758102006.8259232,100,4350,5812
1758102006.8659232,100,4350,5818
1758102006.9059231,100,4350,5793
1758102006.945923,100,4366,5764
1758102006.985923,100,4366,5751
1758102007.025923,100,4384,5752
1758102007.0659232,100,4384,5740
1758102007.1059232,100,4384,5754
1758102007.1459231,100,4407,5776
1758102007.185923,100,4407,5787
1758102007.225923,100,4407,5793
1758102007.265923,100,4422,5786
1758102007.3059232,100,4422,5794
1758102007.3459232,100,4439,5799
1758102007.3859231,100,4439,5779
1758102007.425923,100,4439,5757
1758102007.465923,100,4456,5735
1758102007.505923,100,4456,5738
1758102007.5459232,100,4474,5745
1758102007.5859232,100,4474,5748
1758102007.6259232,100,4474,5748
1758102007.665923,100,4491,5773
1758102007.705923,100,4491,5783
1758102007.745923,100,4506,5796
1758102007.785923,100,4506,5799
1758102007.8259232,100,4506,5783
1758102007.8659232,100,4523,5767
1758102007.9059231,100,4523,5748
1758102007.945923,100,4540,5735
1758102007.985923,100,4540,5734
1758102008.025923,100,4540,5741
1758102008.0659232,100,4559,5741
1758102008.1059232,100,4559,5751
1758102008.1459231,100,4573,5771
1758102008.185923,100,4573,5784
1758102008.225923,100,4573,5788
1758102008.265923,100,4590,5781
1758102008.3059232,100,4590,5776
1758102008.3459232,100,4607,5754
1758102008.3859231,100,4607,5743
1758102008.425923,100,4607,5738
1758102008.465923,100,4626,5729
1758102008.505923,100,4626,5733
1758102008.5459232,100,4626,5748
1758102008.5859232,100,4640,5750
1758102008.6259232,100,4640,5764
1758102008.665923,100,4658,5776
1758102008.705923,100,4658,5789
1758102008.745923,100,4658,5800
1758102008.785923,100,4676,5791
1758102008.8259232,100,4676,5743
1758102008.8659232,100,4693,5731
1758102008.9059231,100,4693,5729
1758102008.945923,100,4693,5735
1758102008.985923,100,4710,5740
1758102009.025923,100,4710,5738
1758102009.0659232,100,4727,5746
1758102009.1059232,100,4727,5752
1758102009.1459231,100,4727,5763
1758102009.185923,100,4743,5776
1758102009.225923,100,4743,5797
1758102009.265923,100,4760,5761
1758102009.3059232,100,4760,5752
1758102009.3459232,100,4760,5727
1758102009.3859231,100,4775,5737
1758102009.425923,100,4775,5729
1758102009.465923,100,4794,5741
1758102009.505923,100,4794,5748
1758102009.5459232,100,4794,5751
1758102009.5859232,100,4810,5755
1758102009.6259232,100,4810,5764
1758102009.665923,100,4828,5778
1758102009.705923,100,4828,5782
1758102009.745923,100,4828,5763
1758102009.785923,100,4843,5727
1758102009.8259232,100,4843,5718
1758102009.8659232,100,4843,5715
1758102009.9059231,100,4859,5734
1758102009.945923,100,4859,5754
1758102009.985923,100,4878,5749
1758102010.025923,100,4878,5762
1758102010.0659232,100,4878,5753
1758102010.1059232,100,4895,5778
1758102010.1459231,100,4895,5777
1758102010.185923,100,4910,5769
1758102010.225923,100,4910,5732
1758102010.265923,100,4927,5715
1758102010.3059232,100,4927,5714
1758102010.3459232,100,4927,5713
1758102010.3859231,100,4943,5720
1758102010.425923,100,4943,5735
1758102010.465923,100,4962,5744
1758102010.505923,100,4962,5742
1758102010.5459232,100,4962,5757
1758102010.5859232,100,4978,5754
1758102010.6259232,100,4978,5750
1758102010.665923,100,4994,5737
1758102010.705923,100,4994,5715
1758102010.745923,100,4994,5693
1758102010.785923,100,5010,5678
1758102010.8259232,100,5010,5693
1758102010.8659232,100,5010,5691
1758102010.9059231,100,5029,5712
1758102010.945923,100,5029,5724
1758102010.985923,100,5046,5719
1758102011.025923,100,5046,5731
1758102011.0659232,100,5046,5740
1758102011.1059232,100,5061,5707
1758102011.1459231,100,5061,5685
1758102011.185923,100,5077,5674
1758102011.225923,100,5077,5668
1758102011.265923,100,5077,5676
1758102011.3059232,100,5095,5677
1758102011.3459232,100,5095,5687
1758102011.3859231,100,5113,5703
1758102011.425923,100,5113,5704
1758102011.465923,100,5113,5714
1758102011.505923,100,5128,5727
1758102011.5459232,100,5128,5712
1758102011.5859232,100,5144,5685
1758102011.6259232,100,5144,5651
1758102011.665923,100,5144,5642
1758102011.705923,100,5162,5650
1758102011.745923,100,5162,5653
1758102011.785923,100,5180,5657
1758102011.8259232,100,5180,5660
1758102011.8659232,100,5180,5668
1758102011.9059231,100,5195,5674
1758102011.945923,100,5195,5701
1758102011.985923,100,5212,5702
1758102012.025923,100,5212,5680
1758102012.0659232,100,5212,5661
1758102012.1059232,100,5229,5631
1758102012.1459231,100,5229,5613
1758102012.185923,100,5250,5619
1758102012.225923,100,5250,5631
1758102012.265923,100,5250,5644
1758102012.3059232,100,5250,5662
1758102012.3459232,100,5268,5661
1758102012.3859231,100,5268,5671
1758102012.425923,100,5284,5672
1758102012.465923,100,5284,5692
1758102012.505923,100,5284,5682
1758102012.5459232,100,5301,5650
1758102012.5859232,100,5301,5622
1758102012.6259232,100,5318,5617
1758102012.665923,100,5318,5626
1758102012.705923,100,5318,5623
1758102012.745923,100,5335,5641
1758102012.785923,100,5335,5651
1758102012.8259232,100,5351,5659
1758102012.8659232,100,5351,5684
1758102012.9059231,100,5351,5683
1758102012.945923,100,5368,5700
1758102012.985923,100,5368,5677
1758102013.025923,100,5385,5657
1758102013.0659232,100,5385,5638
1758102013.1059232,100,5385,5632
1758102013.1459231,100,5402,5614
1758102013.185923,100,5402,5635
1758102013.225923,100,5419,5646
1758102013.265923,100,5419,5658
1758102013.3059232,100,5419,5665
1758102013.3459232,100,5436,5664
1758102013.3859231,100,5436,5686
1758102013.425923,100,5452,5689
1758102013.465923,100,5452,5694
1758102013.505923,100,5452,5666
1758102013.5459232,100,5469,5639
1758102013.5859232,100,5469,5636
1758102013.6259232,100,5487,5643
1758102013.665923,100,5487,5636
1758102013.705923,100,5487,5647
1758102013.745923,100,5505,5657
1758102013.785923,100,5505,5679
1758102013.8259232,100,5505,5675
1758102013.8659232,100,5521,5697
1758102013.9059231,100,5521,5689
1758102013.945923,100,5539,5703
1758102013.985923,100,5539,5677
1758102014.025923,100,5539,5647
1758102014.0659232,100,5555,5628
1758102014.1059232,100,5555,5644
1758102014.1459231,100,5572,5649
1758102014.185923,100,5572,5656
1758102014.225923,100,5572,5665
1758102014.265923,100,5588,5679
1758102014.3059232,100,5588,5687
1758102014.3459232,100,5606,5691
1758102014.3859231,100,5606,5707
1758102014.425923,100,5606,5701
1758102014.465923,100,5624,5685
1758102014.505923,100,5624,5664
1758102014.5459232,100,5639,5649
1758102014.5859232,100,5639,5647
1758102014.6259232,100,5639,5653
1758102014.665923,100,5656,5657
1758102014.705923,100,5656,5662
1758102014.745923,100,5675,5678
1758102014.785923,100,5675,5698
1758102014.8259232,100,5675,5698
1758102014.8659232,100,5693,5685
1758102014.9059231,100,5693,5675
1758102014.945923,100,5709,5645
1758102014.985923,100,5709,5632
1758102015.025923,100,5709,5627
1758102015.0659232,100,5725,5617
1758102015.1059232,100,5725,5626
1758102015.1459231,100,5725,5638
1758102015.185923,100,5744,5626
1758102015.225923,100,5744,5640
1758102015.265923,100,5762,5652
1758102015.3059232,100,5762,5666
1758102015.3459232,100,5762,5669
1758102015.3859231,100,5778,5636
1758102015.425923,100,5778,5595
1758102015.465923,100,5794,5587
1758102015.505923,100,5794,5585
1758102015.5459232,100,5794,5590
1758102015.5859232,100,5811,5590
1758102015.6259232,100,5811,5597
1758102015.665923,100,5828,5603
1758102015.705923,100,5828,5613
1758102015.745923,100,5828,5612
1758102015.785923,100,5844,5627
1758102015.8259232,100,5844,5633
1758102015.8659232,100,5859,5602
1758102015.9059231,100,5859,5580
1758102015.945923,100,5859,5562
1758102015.985923,100,5877,5559
1758102016.025923,100,5877,5559
1758102016.0659232,100,5895,5561
1758102016.1059232,100,5895,5564
1758102016.1459231,100,5895,5576
1758102016.185923,100,5912,5579
1758102016.225923,100,5912,5586
1758102016.265923,100,5927,5597
1758102016.3059232,100,5927,5599
1758102016.3459232,100,5927,5576
1758102016.3859231,100,5944,5555
1758102016.425923,100,5944,5525
1758102016.465923,100,5960,5526
1758102016.505923,100,5960,5539
1758102016.5459232,100,5960,5550
1758102016.5859232,100,5979,5556
1758102016.6259232,100,5979,5558
1758102016.665923,100,5979,5553
1758102016.705923,100,5994,5558
1758102016.745923,100,5994,5577
1758102016.785923,100,6011,5580
1758102016.8259232,100,6011,5561
1758102016.8659232,100,6011,5540
1758102016.9059231,100,6027,5515
1758102016.945923,100,6027,5524
1758102016.985923,100,6045,5514
1758102017.025923,100,6045,5529
1758102017.0659232,100,6045,5554
1758102017.1059232,100,6061,5552
1758102017.1459231,100,6061,5555
1758102017.185923,100,6078,5563
1758102017.225923,100,6078,5563
1758102017.265923,100,6078,5565
1758102017.3059232,100,6095,5560
1758102017.3459232,100,6095,5548
1758102017.3859231,100,6117,5526
1758102017.425923,100,6117,5515
1758102017.465923,100,6117,5543
1758102017.505923,100,6131,5547
1758102017.5459232,100,6131,5562
1758102017.5859232,100,6148,5561
1758102017.6259232,100,6148,5561
1758102017.665923,100,6148,5571
1758102017.705923,100,6167,5579
1758102017.745923,100,6167,5578
1758102017.785923,100,6184,5565
1758102017.8259232,100,6184,5541
1758102017.8659232,100,6184,5535
1758102017.9059231,100,6199,5515
1758102017.945923,100,6199,5527
1758102017.985923,100,6199,5543
1758102018.025923,100,6218,5556
1758102018.0659232,100,6218,5566
1758102018.1059232,100,6234,5570
1758102018.1459231,100,6234,5573
1758102018.185923,100,6234,5583
1758102018.225923,100,6251,5586
1758102018.265923,100,6251,5555
1758102018.3059232,100,6268,5544
1758102018.3459232,100,6268,5533
1758102018.3859231,100,6283,5518
1758102018.425923,100,6283,5524
1758102018.465923,100,6283,5544
1758102018.505923,100,6301,5559
1758102018.5459232,100,6301,5564
1758102018.5859232,100,6319,5570
1758102018.6259232,100,6319,5569
1758102018.665923,100,6319,5579
1758102018.705923,100,6337,5583
1758102018.745923,100,6337,5548
1758102018.785923,100,6337,5531
1758102018.8259232,100,6352,5524
1758102018.8659232,100,6352,5521
1758102018.9059231,100,6368,5524
1758102018.945923,100,6368,5516
1758102018.985923,100,6368,5526
1758102019.025923,100,6386,5543
1758102019.0659232,100,6386,5551
1758102019.1059232,100,6404,5564
1758102019.1459231,100,6404,5566
1758102019.185923,100,6404,5569
1758102019.225923,100,6419,5553
1758102019.265923,100,6419,5521
1758102019.3059232,100,6436,5504
1758102019.3459232,100,6436,5522
1758102019.3859231,100,6436,5499
1758102019.425923,100,6453,5531
1758102019.465923,100,6453,5536
1758102019.505923,100,6469,5549
1758102019.5459232,100,6469,5553
1758102019.5859232,100,6469,5561
1758102019.6259232,100,6485,5569
1758102019.665923,100,6485,5568
1758102019.705923,100,6501,5578
1758102019.745923,100,6501,5549
1758102019.785923,100,6501,5534
1758102019.8259232,100,6518,5538
1758102019.8659232,100,6518,5532
1758102019.9059231,100,6518,5535
1758102019.945923,100,6534,5533
1758102019.985923,100,6534,5556
1758102020.025923,100,6551,5564
1758102020.0659232,100,6551,5572
1758102020.1059232,100,6551,5580
1758102020.1459231,100,6566,5591
1758102020.185923,100,6566,5597
1758102020.225923,100,6583,5578
1758102020.265923,100,6583,5560
1758102020.3059232,100,6583,5542
1758102020.3459232,100,6600,5549
1758102020.3859231,100,6600,5554
1758102020.425923,100,6619,5557
1758102020.465923,100,6619,5564
1758102020.505923,100,6619,5560
1758102020.5459232,100,6633,5583
1758102020.5859232,100,6633,5588
1758102020.6259232,100,6653,5606
1758102020.665923,100,6653,5597
1758102020.705923,100,6653,5596
1758102020.745923,100,6669,5559
1758102020.785923,100,6669,5532
1758102020.8259232,100,6686,5526
1758102020.8659232,100,6686,5519
1758102020.9059231,100,6686,5526
1758102020.945923,100,6701,5537
1758102020.985923,100,6701,5551
1758102021.025923,100,6718,5556
1758102021.0659232,100,6718,5586
1758102021.1059232,100,6718,5601
1758102021.1459231,100,6734,5608
1758102021.185923,100,6734,5610
1758102021.225923,100,6734,5620
1758102021.265923,100,6751,5591
1758102021.3059232,100,6751,5583
1758102021.3459232,100,6766,5585
1758102021.3859231,100,6766,5597
1758102021.425923,100,6766,5604
1758102021.465923,100,6783,5612
1758102021.505923,100,6783,5628
1758102021.5459232,100,6799,5628
1758102021.5859232,100,6799,5649
1758102021.6259232,100,6799,5668
1758102021.665923,100,6817,5688
1758102021.705923,100,6817,5675
1758102021.745923,100,6831,5668
1758102021.785923,100,6831,5653
1758102021.8259232,100,6831,5650
1758102021.8659232,100,6848,5649
1758102021.9059231,100,6848,5666
1758102021.945923,100,6865,5681
1758102021.985923,100,6865,5680
1758102022.025923,100,6865,5709
1758102022.0659232,100,6882,5700
1758102022.1059232,100,6882,5721
1758102022.1459231,100,6897,5735
1758102022.185923,100,6897,5741
1758102022.225923,100,6897,5739
1758102022.265923,100,6913,5710
1758102022.3059232,100,6913,5698
1758102022.3459232,100,6930,5695
1758102022.3859231,100,6930,5689
1758102022.425923,100,6930,5712
1758102022.465923,100,6952,5714
1758102022.505923,100,6952,5732
1758102022.5459232,100,6952,5754
1758102022.5859232,100,6970,5750
1758102022.6259232,100,6970,5748
1758102022.665923,100,6986,5785
1758102022.705923,100,6986,5774
1758102022.745923,100,6986,5752
1758102022.785923,100,7002,5729
1758102022.8259232,100,7002,5728
1758102022.8659232,100,7021,5730
1758102022.9059231,100,7021,5741
1758102022.945923,100,7021,5749
1758102022.985923,100,7038,5760
1758102023.025923,100,7038,5750
1758102023.0659232,100,7053,5767
1758102023.1059232,100,7053,5783
1758102023.1459231,100,7053,5784
1758102023.185923,100,7069,5782
1758102023.225923,100,7069,5765
1758102023.265923,100,7087,5752
1758102023.3059232,100,7087,5735
1758102023.3459232,100,7087,5740
1758102023.3859231,100,7103,5760
1758102023.425923,100,7103,5771
1758102023.465923,100,7118,5764
1758102023.505923,100,7118,5769
1758102023.5459232,100,7118,5795
1758102023.5859232,100,7134,5803
1758102023.6259232,100,7134,5817
1758102023.665923,100,7154,5807
1758102023.705923,100,7154,5808
1758102023.745923,100,7154,5789
1758102023.785923,100,7170,5780
1758102023.8259232,100,7170,5765
1758102023.8659232,100,7170,5781
1758102023.9059231,100,7185,5786
1758102023.945923,100,7185,5823
1758102023.985923,100,7204,5818
1758102024.025923,100,7204,5836
1758102024.0659232,100,7204,5826
1758102024.1059232,100,7221,5847
1758102024.1459231,100,7221,5835
1758102024.185923,100,7237,5836
1758102024.225923,100,7237,5812
1758102024.265923,100,7237,5817
1758102024.3059232,100,7256,5799
1758102024.3459232,100,7256,5805
1758102024.3859231,100,7256,5821
1758102024.425923,100,7256,5835
1758102024.465923,100,7256,5829
1758102024.505923,100,7274,5837
1758102024.5459232,100,7274,5850
1758102024.5859232,100,7293,5849
1758102024.6259232,100,7293,5870
1758102024.665923,100,7293,5864
1758102024.705923,100,7308,5850
1758102024.745923,100,7308,5841
1758102024.785923,100,7327,5826
1758102024.8259232,100,7327,5831
1758102024.8659232,100,7327,5840
1758102024.9059231,100,7345,5846
1758102024.945923,100,7345,5849
1758102024.985923,100,7363,5852
1758102025.025923,100,7363,5865
1758102025.0659232,100,7363,5891
1758102025.1059232,100,7378,5878
1758102025.1459231,100,7378,5859
1758102025.185923,100,7394,5832
1758102025.225923,100,7394,5836
1758102025.265923,100,7394,5835
1758102025.3059232,100,7411,5830
1758102025.3459232,100,7411,5836
1758102025.3859231,100,7430,5840
1758102025.425923,100,7430,5846
1758102025.465923,100,7430,5859
1758102025.505923,100,7446,5861
1758102025.5459232,100,7446,5881
1758102025.5859232,100,7462,5857
1758102025.6259232,100,7462,5849
1758102025.665923,100,7462,5814
1758102025.705923,100,7478,5819
1758102025.745923,100,7478,5810
1758102025.785923,100,7478,5810
1758102025.8259232,100,7495,5811
1758102025.8659232,100,7495,5809
1758102025.9059231,100,7513,5808
1758102025.945923,100,7513,5812
1758102025.985923,100,7513,5834
1758102026.025923,100,7529,5835
1758102026.0659232,100,7529,5828
1758102026.1059232,100,7545,5796
1758102026.1459231,100,7545,5765
1758102026.185923,100,7545,5768
1758102026.225923,100,7562,5770
1758102026.265923,100,7562,5763
1758102026.3059232,100,7579,5763
1758102026.3459232,100,7579,5765
1758102026.3859231,100,7579,5774
1758102026.425923,100,7594,5789
1758102026.465923,100,7594,5792
1758102026.505923,100,7610,5802
1758102026.5459232,100,7610,5792
1758102026.5859232,100,7628,5740
1758102026.6259232,100,7628,5732
1758102026.665923,100,7628,5717
1758102026.705923,100,7628,5729
1758102026.745923,100,7644,5734
1758102026.785923,100,7644,5733
1758102026.8259232,100,7663,5734
1758102026.8659232,100,7663,5740
1758102026.9059231,100,7663,5740
1758102026.945923,100,7678,5749
1758102026.985923,100,7678,5769
1758102027.025923,100,7695,5758
1758102027.0659232,100,7695,5728
1758102027.1059232,100,7695,5700
1758102027.1459231,100,7711,5687
1758102027.185923,100,7711,5690
1758102027.225923,100,7730,5692
1758102027.265923,100,7730,5698
1758102027.3059232,100,7730,5699
1758102027.3459232,100,7745,5691
1758102027.3859231,100,7745,5696
1758102027.425923,100,7762,5696
1758102027.465923,100,7762,5700
1758102027.505923,100,7762,5702
1758102027.5459232,100,7783,5690
1758102027.5859232,100,7783,5677
1758102027.6259232,100,7783,5638
1758102027.665923,100,7801,5665
1758102027.705923,100,7801,5665
1758102027.745923,100,7818,5677
1758102027.785923,100,7818,5690
1758102027.8259232,100,7818,5689
1758102027.8659232,100,7834,5680
1758102027.9059231,100,7834,5689
1758102027.945923,100,7851,5689
1758102027.985923,100,7851,5692
1758102028.025923,100,7851,5686
1758102028.0659232,100,7870,5671
1758102028.1059232,100,7870,5660
1758102028.1459231,100,7886,5656
1758102028.185923,100,7886,5667
1758102028.225923,100,7886,5684
1758102028.265923,100,7904,5695
1758102028.3059232,100,7904,5695
1758102028.3459232,100,7920,5701
1758102028.3859231,100,7920,5700
1758102028.425923,100,7920,5701
1758102028.465923,100,7937,5686
1758102028.505923,100,7937,5663
1758102028.5459232,100,7937,5624
1758102028.5859232,100,7953,5629
1758102028.6259232,100,7953,5627
1758102028.665923,100,7973,5614
1758102028.705923,100,7973,5624
1758102028.745923,100,7973,5621
1758102028.785923,100,7989,5637
1758102028.8259232,100,7989,5640
1758102028.8659232,100,7989,5625
1758102028.9059231,100,8006,5630
1758102028.945923,100,8006,5610
1758102028.985923,100,8023,5576
1758102029.025923,100,8023,5566
1758102029.0659232,100,8023,5547
1758102029.1059232,100,8040,5565
1758102029.1459231,100,8040,5569
1758102029.185923,100,8054,5559
1758102029.225923,100,8054,5568
1758102029.265923,100,8054,5565
1758102029.3059232,100,8074,5567
1758102029.3459232,100,8074,5579
1758102029.3859231,100,8090,5566
1758102029.425923,100,8090,5543
1758102029.465923,100,8090,5531
1758102029.505923,100,8107,5504
1758102029.5459232,100,8107,5505
1758102029.5859232,100,8107,5511
1758102029.6259232,100,8122,5505
1758102029.665923,100,8122,5515
1758102029.705923,100,8141,5529
1758102029.745923,100,8141,5524
1758102029.785923,100,8141,5527
1758102029.8259232,100,8157,5544
1758102029.8659232,100,8157,5538
1758102029.9059231,100,8174,5505
1758102029.945923,100,8174,5489
1758102029.985923,100,8174,5470
1758102030.025923,100,8190,5483
1758102030.0659232,100,8190,5484
1758102030.1059232,100,8208,5494
1758102030.1459231,100,8208,5483
1758102030.185923,100,8208,5493
1758102030.225923,100,8224,5513
1758102030.265923,100,8224,5527
1758102030.3059232,100,8242,5537
1758102030.3459232,100,8242,5531
1758102030.3859231,100,8242,5522
1758102030.425923,100,8257,5487
1758102030.465923,100,8257,5482
1758102030.505923,100,8273,5467
1758102030.5459232,100,8273,5505
1758102030.5859232,100,8273,5515
1758102030.6259232,100,8292,5512
1758102030.665923,100,8292,5525
1758102030.705923,100,8309,5526
1758102030.745923,100,8309,5555
1758102030.785923,100,8309,5558
1758102030.8259232,100,8325,5568
1758102030.8659232,100,8325,5563
1758102030.9059231,100,8341,5528
1758102030.945923,100,8341,5524
1758102030.985923,100,8341,5508
1758102031.025923,100,8357,5518
1758102031.0659232,100,8357,5526
1758102031.1059232,100,8357,5515
1758102031.1459231,100,8376,5541
1758102031.185923,100,8376,5546
1758102031.225923,100,8376,5563
1758102031.265923,100,8392,5576
1758102031.3059232,100,8392,5576
1758102031.3459232,100,8409,5598
1758102031.3859231,100,8409,5592
1758102031.425923,100,8409,5567
1758102031.465923,100,8424,5544
1758102031.505923,100,8424,5538
1758102031.5459232,100,8441,5535
1758102031.5859232,100,8441,5547
1758102031.6259232,100,8441,5549
1758102031.665923,100,8460,5545
1758102031.705923,100,8460,5571
1758102031.745923,100,8477,5571
1758102031.785923,100,8477,5587
1758102031.8259232,100,8477,5598
1758102031.8659232,100,8491,5604
1758102031.9059231,100,8491,5616
1758102031.945923,100,8509,5616
1758102031.985923,100,8509,5601
1758102032.025923,100,8509,5582
1758102032.0659232,100,8525,5581
1758102032.1059232,100,8525,5574
1758102032.1459231,100,8542,5571
1758102032.185923,100,8542,5570
1758102032.225923,100,8542,5596
1758102032.265923,100,8559,5597
1758102032.3059232,100,8559,5596
1758102032.3459232,100,8576,5599
1758102032.3859231,100,8576,5601
1758102032.425923,100,8576,5614
1758102032.465923,100,8592,5629
1758102032.505923,100,8592,5637
1758102032.5459232,100,8592,5655
1758102032.5859232,100,8609,5647
1758102032.6259232,100,8609,5641
1758102032.665923,100,8629,5625
1758102032.705923,100,8629,5602
1758102032.745923,100,8629,5604
1758102032.785923,100,8646,5602
1758102032.8259232,100,8646,5613
1758102032.8659232,100,8664,5610
1758102032.9059231,100,8664,5610
1758102032.945923,100,8664,5618
1758102032.985923,100,8682,5640
1758102033.025923,100,8682,5647
1758102033.0659232,100,8696,5659
1758102033.1059232,100,8696,5658
1758102033.1459231,100,8696,5665
1758102033.185923,100,8713,5688
1758102033.225923,100,8713,5687
1758102033.265923,100,8730,5677
1758102033.3059232,100,8730,5634
1758102033.3459232,100,8730,5638
1758102033.3859231,100,8747,5634
1758102033.425923,100,8747,5631
1758102033.465923,100,8747,5652
1758102033.505923,100,8765,5649
1758102033.5459232,100,8765,5652
1758102033.5859232,100,8781,5666
1758102033.6259232,100,8781,5683
1758102033.665923,100,8781,5696
1758102033.705923,100,8799,5695
1758102033.745923,100,8799,5698
1758102033.785923,100,8799,5726
1758102033.8259232,100,8816,5685
1758102033.8659232,100,8816,5663
1758102033.9059231,100,8834,5653
1758102033.945923,100,8834,5638
1758102033.985923,100,8834,5650
1758102034.025923,100,8852,5658
1758102034.0659232,100,8852,5657
1758102034.1059232,100,8868,5656
1758102034.1459231,100,8868,5663
1758102034.185923,100,8868,5690
1758102034.225923,100,8885,5697
1758102034.265923,100,8885,5701
1758102034.3059232,100,8902,5698
1758102034.3459232,100,8902,5716
1758102034.3859231,100,8902,5723
1758102034.425923,100,8918,5718
1758102034.465923,100,8918,5683
1758102034.505923,100,8933,5672
1758102034.5459232,100,8933,5660
1758102034.5859232,100,8953,5647
1758102034.6259232,100,8953,5658
1758102034.665923,100,8953,5658
1758102034.705923,100,8969,5654
1758102034.745923,100,8969,5660
1758102034.785923,100,8969,5653
1758102034.8259232,100,8986,5647
1758102034.8659232,100,8986,5642
1758102034.9059231,100,9001,5657
1758102034.945923,100,9001,5663
1758102034.985923,100,9001,5669
1758102035.025923,100,9018,5667
1758102035.0659232,100,9018,5645
1758102035.1059232,100,9034,5624
1758102035.1459231,100,9034,5604
1758102035.185923,100,9034,5611
1758102035.225923,100,9051,5625
1758102035.265923,100,9051,5629
1758102035.3059232,100,9066,5640
1758102035.3459232,100,9066,5646
1758102035.3859231,100,9066,5662
1758102035.425923,100,9083,5673
1758102035.465923,100,9083,5691
1758102035.505923,100,9083,5697
1758102035.5459232,100,9099,5720
1758102035.5859232,100,9099,5724
1758102035.6259232,100,9099,5726
1758102035.665923,100,9117,5724
1758102035.705923,100,9117,5705
1758102035.745923,100,9133,5702
1758102035.785923,100,9133,5696
1758102035.8259232,100,9133,5708
1758102035.8659232,100,9148,5702
1758102035.9059231,100,9148,5718
1758102035.945923,100,9165,5725
1758102035.985923,100,9165,5733
1758102036.025923,100,9165,5729
1758102036.0659232,100,9182,5720
1758102036.1059232,100,9182,5704
1758102036.1459231,100,9198,5732
1758102036.185923,100,9198,5728
1758102036.225923,100,9198,5708
1758102036.265923,100,9214,5682
1758102036.3059232,100,9214,5655
1758102036.3459232,100,9230,5647
1758102036.3859231,100,9230,5640
1758102036.425923,100,9230,5639
1758102036.465923,100,9247,5654
1758102036.505923,100,9247,5650
1758102036.5459232,100,9247,5658
1758102036.5859232,100,9263,5654
1758102036.6259232,100,9263,5660
1758102036.665923,100,9280,5669
1758102036.705923,100,9280,5684
1758102036.745923,100,9280,5698
1758102036.785923,100,9295,5694
1758102036.8259232,100,9295,5682
1758102036.8659232,100,9312,5663
1758102036.9059231,100,9312,5651
1758102036.945923,100,9312,5649
1758102036.985923,100,9329,5673
1758102037.025923,100,9329,5667
1758102037.0659232,100,9346,5670
1758102037.1059232,100,9346,5700
1758102037.1459231,100,9346,5722
1758102037.185923,100,9360,5723
1758102037.225923,100,9360,5726
1758102037.265923,100,9378,5733
1758102037.3059232,100,9378,5742
1758102037.3459232,100,9378,5754
1758102037.3859231,100,9394,5724
1758102037.425923,100,9394,5731
1758102037.465923,100,9411,5719
1758102037.505923,100,9411,5714
1758102037.5459232,100,9411,5716
1758102037.5859232,100,9426,5724
1758102037.6259232,100,9426,5726
1758102037.665923,100,9443,5752
1758102037.705923,100,9443,5760
1758102037.745923,100,9443,5768
1758102037.785923,100,9443,5769
1758102037.8259232,100,9464,5778
1758102037.8659232,100,9464,5784
1758102037.9059231,100,9482,5797
1758102037.945923,100,9482,5789
1758102037.985923,100,9482,5781
1758102038.025923,100,9498,5781
1758102038.0659232,100,9498,5793
1758102038.1059232,100,9513,5807
1758102038.1459231,100,9513,5801
1758102038.185923,100,9513,5808
1758102038.225923,100,9529,5828
1758102038.265923,100,9529,5834
1758102038.3059232,100,9529,5832
1758102038.3459232,100,9547,5834
1758102038.3859231,100,9547,5843
1758102038.425923,100,9563,5847
1758102038.465923,100,9563,5833
1758102038.505923,100,9563,5827
1758102038.5459232,100,9578,5809
1758102038.5859232,100,9578,5822
1758102038.6259232,100,9595,5804
1758102038.665923,100,9595,5797
1758102038.705923,100,9595,5784
1758102038.745923,100,9614,5799
1758102038.785923,100,9614,5800
1758102038.8259232,100,9630,5798
1758102038.8659232,100,9630,5800
1758102038.9059231,100,9630,5803
1758102038.945923,100,9648,5796
1758102038.985923,100,9648,5801
1758102039.025923,100,9662,5803
1758102039.0659232,100,9662,5780
1758102039.1059232,100,9662,5752
1758102039.1459231,100,9679,5733
1758102039.185923,100,9679,5737
1758102039.225923,100,9696,5744
1758102039.265923,100,9696,5742
1758102039.3059232,100,9696,5755
1758102039.3459232,100,9713,5755
1758102039.3859231,100,9713,5749
1758102039.425923,100,9727,5742
1758102039.465923,100,9727,5762
1758102039.505923,100,9727,5764
1758102039.5459232,100,9744,5751
1758102039.5859232,100,9744,5736
1758102039.6259232,100,9761,5704
1758102039.665923,100,9761,5679
1758102039.705923,100,9761,5680
1758102039.745923,100,9780,5673
1758102039.785923,100,9780,5676
1758102039.8259232,100,9780,5689
1758102039.8659232,100,9796,5686
1758102039.9059231,100,9796,5685
1758102039.945923,100,9796,5671
1758102039.985923,100,9796,5684
1758102040.025923,100,9796,5694
1758102040.0659232,100,9812,5722
1758102040.1059232,100,9812,5713
1758102040.1459231,100,9812,5701
1758102040.185923,100,9812,5679
1758102040.225923,100,9812,5656
1758102040.265923,100,9830,5658
1758102040.3059232,100,9830,5657
1758102040.3459232,100,9830,5672
1758102040.3859231,100,9830,5678
1758102040.425923,100,9848,5685
1758102040.465923,100,9848,5702
1758102040.505923,100,9848,5720
1758102040.5459232,100,9848,5741
1758102040.5859232,100,9866,5753
1758102040.6259232,100,9866,5755
1758102040.665923,100,9884,5756
1758102040.705923,100,9884,5757
1758102040.745923,100,9884,5744
1758102040.785923,100,9899,5737
1758102040.8259232,100,9899,5739
1758102040.8659232,100,9915,5733
1758102040.9059231,100,9915,5732
1758102040.945923,100,9915,5747
1758102040.985923,100,9935,5749
1758102041.025923,100,9935,5751
1758102041.0659232,100,9951,5762
1758102041.1059232,100,9951,5786
1758102041.1459231,100,9951,5789
1758102041.185923,100,9966,5803
1758102041.225923,100,9966,5797
1758102041.265923,100,9966,5792
1758102041.3059232,100,9983,5782
1758102041.3459232,100,9983,5765
1758102041.3859231,100,10000,5762
1758102041.425923,100,10000,5742
1758102041.465923,100,10000,5760
1758102041.505923,100,10016,5751
1758102041.5459232,100,10016,5767
1758102041.5859232,100,10032,5765
1758102041.6259232,100,10032,5789
1758102041.665923,100,10032,5797
1758102041.705923,100,10048,5797
1758102041.745923,100,10048,5817
1758102041.785923,100,10065,5820
1758102041.8259232,100,10065,5818
1758102041.8659232,100,10065,5802
1758102041.9059231,100,10081,5775
1758102041.945923,100,10081,5763
1758102041.985923,100,10098,5756
1758102042.025923,100,10098,5762
1758102042.0659232,100,10098,5763
1758102042.1059232,100,10115,5785
1758102042.1459231,100,10115,5789
1758102042.185923,100,10132,5799
1758102042.225923,100,10132,5793
1758102042.265923,100,10132,5797
1758102042.3059232,100,10149,5823
1758102042.3459232,100,10149,5820
1758102042.3859231,100,10149,5841
1758102042.425923,100,10166,5817
1758102042.465923,100,10166,5785
1758102042.505923,100,10180,5764
1758102042.5459232,100,10180,5755
1758102042.5859232,100,10180,5773
1758102042.6259232,100,10200,5782
1758102042.665923,100,10200,5775
1758102042.705923,100,10216,5790
1758102042.745923,100,10216,5783
1758102042.785923,100,10233,5796
1758102042.8259232,100,10233,5812
1758102042.8659232,100,10233,5802
1758102042.9059231,100,10253,5823
1758102042.945923,100,10253,5812
1758102042.985923,100,10253,5802
1758102043.025923,100,10270,5764
1758102043.0659232,100,10270,5751
1758102043.1059232,100,10286,5744
1758102043.1459231,100,10286,5758
1758102043.185923,100,10286,5753
1758102043.225923,100,10303,5750
1758102043.265923,100,10303,5760
1758102043.3059232,100,10320,5762
1758102043.3459232,100,10320,5779
1758102043.3859231,100,10320,5779
1758102043.425923,100,10337,5794
1758102043.465923,100,10337,5792
1758102043.505923,100,10353,5800
1758102043.5459232,100,10353,5753
1758102043.5859232,100,10353,5746
1758102043.6259232,100,10371,5730
1758102043.665923,100,10371,5733
1758102043.705923,100,10388,5727
1758102043.745923,100,10388,5743
1758102043.785923,100,10388,5757
1758102043.8259232,100,10406,5758
1758102043.8659232,100,10406,5766
1758102043.9059231,100,10423,5769
1758102043.945923,100,10423,5773
1758102043.985923,100,10423,5786
1758102044.025923,100,10440,5791
1758102044.0659232,100,10440,5779
1758102044.1059232,100,10455,5766
1758102044.1459231,100,10455,5748
1758102044.185923,100,10455,5730
1758102044.225923,100,10472,5734
1758102044.265923,100,10472,5728
1758102044.3059232,100,10472,5750
1758102044.3459232,100,10490,5755
1758102044.3859231,100,10490,5764
1758102044.425923,100,10507,5769
1758102044.465923,100,10507,5774
1758102044.505923,100,10507,5774
1758102044.5459232,100,10523,5788
1758102044.5859232,100,10523,5778
1758102044.6259232,100,10539,5770
1758102044.665923,100,10539,5751
1758102044.705923,100,10539,5734
1758102044.745923,100,10555,5727
1758102044.785923,100,10555,5718
1758102044.8259232,100,10572,5728
1758102044.8659232,100,10572,5731
1758102044.9059231,100,10572,5740
1758102044.945923,100,10591,5740
1758102044.985923,100,10591,5743
1758102045.025923,100,10606,5750
1758102045.0659232,100,10606,5754
1758102045.1059232,100,10606,5754
1758102045.1459231,100,10622,5755
1758102045.185923,100,10622,5733
1758102045.225923,100,10640,5708
1758102045.265923,100,10640,5697
1758102045.3059232,100,10640,5699
1758102045.3459232,100,10656,5698
1758102045.3859231,100,10656,5697
1758102045.425923,100,10673,5700
1758102045.465923,100,10673,5706
1758102045.505923,100,10673,5707
1758102045.5459232,100,10689,5704
1758102045.5859232,100,10689,5711
1758102045.6259232,100,10689,5709
1758102045.665923,100,10707,5719
1758102045.705923,100,10707,5709
1758102045.745923,100,10723,5703
1758102045.785923,100,10723,5659
1758102045.8259232,100,10723,5661
1758102045.8659232,100,10739,5641
1758102045.9059231,100,10739,5665
1758102045.945923,100,10755,5667
1758102045.985923,100,10755,5673
1758102046.025923,100,10755,5662
1758102046.0659232,100,10774,5673
1758102046.1059232,100,10774,5675
1758102046.1459231,100,10790,5688
1758102046.185923,100,10790,5692
1758102046.225923,100,10790,5697
1758102046.265923,100,10808,5698
1758102046.3059232,100,10808,5668
1758102046.3459232,100,10822,5641
1758102046.3859231,100,10822,5631
1758102046.425923,100,10822,5622
1758102046.465923,100,10839,5637
1758102046.505923,100,10839,5658
1758102046.5459232,100,10858,5653
1758102046.5859232,100,10858,5648
1758102046.6259232,100,10858,5644
1758102046.665923,100,10875,5653
1758102046.705923,100,10875,5665
1758102046.745923,100,10875,5674
1758102046.785923,100,10889,5688
1758102046.8259232,100,10889,5658
1758102046.8659232,100,10906,5650
1758102046.9059231,100,10906,5645
1758102046.945923,100,10906,5634
1758102046.985923,100,10923,5646
1758102047.025923,100,10923,5652
1758102047.0659232,100,10942,5664
1758102047.1059232,100,10942,5657
1758102047.1459231,100,10942,5663
1758102047.185923,100,10956,5665
1758102047.225923,100,10956,5681
1758102047.265923,100,10974,5692
1758102047.3059232,100,10974,5698
1758102047.3459232,100,10974,5700
1758102047.3859231,100,10990,5669
1758102047.425923,100,10990,5656
1758102047.465923,100,11007,5653
1758102047.505923,100,11007,5657
1758102047.5459232,100,11007,5651
1758102047.5859232,100,11024,5665
1758102047.6259232,100,11024,5673
1758102047.665923,100,11041,5679
1758102047.705923,100,11041,5675
1758102047.745923,100,11041,5689
1758102047.785923,100,11057,5691
1758102047.8259232,100,11057,5718
1758102047.8659232,100,11074,5717
1758102047.9059231,100,11074,5690
1758102047.945923,100,11074,5658
1758102047.985923,100,11094,5639
1758102048.025923,100,11094,5641
1758102048.0659232,100,11094,5649
1758102048.1059232,100,11111,5656
1758102048.1459231,100,11111,5664
1758102048.185923,100,11129,5659
1758102048.225923,100,11129,5664
1758102048.265923,100,11129,5672
1758102048.3059232,100,11147,5693
1758102048.3459232,100,11147,5686
1758102048.3859231,100,11147,5706
1758102048.425923,100,11163,5671
1758102048.465923,100,11163,5670
1758102048.505923,100,11178,5653
1758102048.5459232,100,11178,5638
1758102048.5859232,100,11178,5649
1758102048.6259232,100,11195,5643
1758102048.665923,100,11195,5644
1758102048.705923,100,11216,5644
1758102048.745923,100,11216,5649
1758102048.785923,100,11216,5654
1758102048.8259232,100,11232,5676
1758102048.8659232,100,11232,5686
1758102048.9059231,100,11248,5681
1758102048.945923,100,11248,5686
1758102048.985923,100,11248,5679
1758102049.025923,100,11264,5664
1758102049.0659232,100,11264,5643
1758102049.1059232,100,11281,5623
1758102049.1459231,100,11281,5616
1758102049.185923,100,11281,5621
1758102049.225923,100,11297,5628
1758102049.265923,100,11297,5625
1758102049.3059232,100,11316,5629
1758102049.3459232,100,11316,5645
1758102049.3859231,100,11316,5644
1758102049.425923,100,11331,5664
1758102049.465923,100,11331,5657
1758102049.505923,100,11348,5679
1758102049.5459232,100,11348,5692
1758102049.5859232,100,11348,5660
1758102049.6259232,100,11365,5640
1758102049.665923,100,11365,5628
1758102049.705923,100,11381,5619
1758102049.745923,100,11381,5604
1758102049.785923,100,11381,5608
1758102049.8259232,100,11396,5621
1758102049.8659232,100,11396,5610
1758102049.9059231,100,11396,5625
1758102049.945923,100,11416,5651
1758102049.985923,100,11416,5651
1758102050.025923,100,11432,5626
1758102050.0659232,100,11432,5670
1758102050.1059232,100,11432,5657
1758102050.1459231,100,11449,5682
1758102050.185923,100,11449,5678
1758102050.225923,100,11464,5644
1758102050.265923,100,11464,5624
1758102050.3059232,100,11464,5612
1758102050.3459232,100,11481,5609
1758102050.3859231,100,11481,5599
1758102050.425923,100,11497,5616
1758102050.465923,100,11497,5619
1758102050.505923,100,11497,5636
1758102050.5459232,100,11516,5618
1758102050.5859232,100,11516,5641
1758102050.6259232,100,11531,5658
1758102050.665923,100,11531,5674
1758102050.705923,100,11531,5672
1758102050.745923,100,11548,5682
1758102050.785923,100,11548,5690
1758102050.8259232,100,11564,5678
1758102050.8659232,100,11564,5652
1758102050.9059231,100,11564,5631
1758102050.945923,100,11582,5619
1758102050.985923,100,11582,5616
1758102051.025923,100,11596,5642
1758102051.0659232,100,11596,5631
1758102051.1059232,100,11596,5622
1758102051.1459231,100,11615,5649
1758102051.185923,100,11615,5659
1758102051.225923,100,11632,5662
1758102051.265923,100,11632,5671
1758102051.3059232,100,11632,5674
1758102051.3459232,100,11651,5686
1758102051.3859231,100,11651,5689
1758102051.425923,100,11666,5695
1758102051.465923,100,11666,5686
1758102051.505923,100,11666,5657
1758102051.5459232,100,11683,5643
1758102051.5859232,100,11683,5651
1758102051.6259232,100,11683,5631
1758102051.665923,100,11699,5645
1758102051.705923,100,11699,5656
1758102051.745923,100,11718,5660
1758102051.785923,100,11718,5672
1758102051.8259232,100,11718,5682
1758102051.8659232,100,11734,5675
1758102051.9059231,100,11734,5695
1758102051.945923,100,11750,5701
1758102051.985923,100,11750,5704
1758102052.025923,100,11750,5703
1758102052.0659232,100,11766,5685
1758102052.1059232,100,11766,5685
1758102052.1459231,100,11783,5642
1758102052.185923,100,11783,5660
1758102052.225923,100,11783,5648
1758102052.265923,100,11800,5665
1758102052.3059232,100,11800,5672
1758102052.3459232,100,11817,5673
1758102052.3859231,100,11817,5672
1758102052.425923,100,11817,5683
1758102052.465923,100,11833,5685
1758102052.505923,100,11833,5690
1758102052.5459232,100,11851,5697
1758102052.5859232,100,11851,5703
1758102052.6259232,100,11851,5690
1758102052.665923,100,11867,5663
1758102052.705923,100,11867,5627
1758102052.745923,100,11882,5646
1758102052.785923,100,11882,5643
1758102052.8259232,100,11882,5655
1758102052.8659232,100,11902,5645
1758102052.9059231,100,11902,5653
1758102052.945923,100,11902,5653
1758102052.985923,100,11920,5651
1758102053.025923,100,11920,5655
1758102053.0659232,100,11941,5674
1758102053.1059232,100,11941,5686
1758102053.1459231,100,11941,5692
1758102053.185923,100,11958,5664
1758102053.225923,100,11958,5620
1758102053.265923,100,11958,5609
1758102053.3059232,100,11973,5612
1758102053.3459232,100,11973,5613
1758102053.3859231,100,11992,5608
1758102053.425923,100,11992,5609
1758102053.465923,100,11992,5620
1758102053.505923,100,12008,5605
1758102053.5459232,100,12008,5611
1758102053.5859232,100,12026,5623
1758102053.6259232,100,12026,5642
1758102053.665923,100,12026,5630
1758102053.705923,100,12042,5648
1758102053.745923,100,12042,5654
1758102053.785923,100,12059,5631
1758102053.8259232,100,12059,5611
1758102053.8659232,100,12059,5588
1758102053.9059231,100,12076,5573
1758102053.945923,100,12076,5567
1758102053.985923,100,12093,5565
1758102054.025923,100,12093,5565
1758102054.0659232,100,12093,5564
1758102054.1059232,100,12110,5578
1758102054.1459231,100,12110,5579
1758102054.185923,100,12110,5598
1758102054.225923,100,12126,5594
1758102054.265923,100,12126,5597
1758102054.3059232,100,12143,5610
1758102054.3459232,100,12143,5623
1758102054.3859231,100,12143,5609
1758102054.425923,100,12160,5581
1758102054.465923,100,12160,5555
1758102054.505923,100,12176,5536
1758102054.5459232,100,12176,5532
1758102054.5859232,100,12176,5531
1758102054.6259232,100,12192,5541
1758102054.665923,100,12192,5533
1758102054.705923,100,12208,5538
1758102054.745923,100,12208,5556
1758102054.785923,100,12208,5568
1758102054.8259232,100,12227,5556
1758102054.8659232,100,12227,5577
1758102054.9059231,100,12244,5591
1758102054.945923,100,12244,5612
1758102054.985923,100,12244,5608
1758102055.025923,100,12259,5567
1758102055.0659232,100,12259,5551
1758102055.1059232,100,12259,5520
1758102055.1459231,100,12275,5520
1758102055.185923,100,12275,5520
1758102055.225923,100,12293,5537
1758102055.265923,100,12293,5544
1758102055.3059232,100,12293,5545
1758102055.3459232,100,12309,5553
1758102055.3859231,100,12309,5559
1758102055.425923,100,12326,5573
1758102055.465923,100,12326,5584
1758102055.505923,100,12326,5594
1758102055.5459232,100,12342,5606
1758102055.5859232,100,12342,5612
1758102055.6259232,100,12360,5583
1758102055.665923,100,12360,5551
1758102055.705923,100,12360,5536
1758102055.745923,100,12376,5539
1758102055.785923,100,12376,5551
1758102055.8259232,100,12392,5549
1758102055.8659232,100,12392,5539
1758102055.9059231,100,12392,5558
1758102055.945923,100,12410,5565
1758102055.985923,100,12410,5563
1758102056.025923,100,12427,5586
1758102056.0659232,100,12427,5599
1758102056.1059232,100,12427,5606
1758102056.1459231,100,12443,5616
1758102056.185923,100,12443,5604
1758102056.225923,100,12460,5580
1758102056.265923,100,12460,5567
1758102056.3059232,100,12460,5536
1758102056.3459232,100,12475,5519
1758102056.3859231,100,12475,5524
1758102056.425923,100,12492,5525
1758102056.465923,100,12492,5537
1758102056.505923,100,12492,5559
1758102056.5459232,100,12511,5546
1758102056.5859232,100,12511,5561
1758102056.6259232,100,12511,5566
1758102056.665923,100,12528,5580
1758102056.705923,100,12528,5576
1758102056.745923,100,12542,5599
1758102056.785923,100,12542,5607
1758102056.8259232,100,12542,5577
1758102056.8659232,100,12559,5567
1758102056.9059231,100,12559,5551
1758102056.945923,100,12576,5514
1758102056.985923,100,12576,5519
1758102057.025923,100,12576,5521
1758102057.0659232,100,12593,5537
1758102057.1059232,100,12593,5548
1758102057.1459231,100,12609,5548
1758102057.185923,100,12609,5539
1758102057.225923,100,12609,5549
1758102057.265923,100,12627,5569
1758102057.3059232,100,12627,5574
1758102057.3459232,100,12643,5611
1758102057.3859231,100,12643,5613
1758102057.425923,100,12643,5627
1758102057.465923,100,12660,5599
1758102057.505923,100,12660,5581
1758102057.5459232,100,12675,5566
1758102057.5859232,100,12675,5566
1758102057.6259232,100,12675,5557
1758102057.665923,100,12692,5556
1758102057.705923,100,12692,5563
1758102057.745923,100,12710,5569
1758102057.785923,100,12710,5570
1758102057.8259232,100,12710,5574
1758102057.8659232,100,12727,5585
1758102057.9059231,100,12727,5597
1758102057.945923,100,12727,5617
1758102057.985923,100,12742,5641
1758102058.025923,100,12742,5630
1758102058.0659232,100,12759,5640
1758102058.1059232,100,12759,5647
1758102058.1459231,100,12759,5615
1758102058.185923,100,12780,5601
1758102058.225923,100,12780,5593
1758102058.265923,100,12798,5596
1758102058.3059232,100,12798,5591
1758102058.3459232,100,12798,5600
1758102058.3859231,100,12816,5604
1758102058.425923,100,12816,5618
1758102058.465923,100,12816,5635
1758102058.505923,100,12831,5635
1758102058.5459232,100,12831,5636
1758102058.5859232,100,12848,5665
1758102058.6259232,100,12848,5670
1758102058.665923,100,12848,5688
1758102058.705923,100,12867,5695
1758102058.745923,100,12867,5696
1758102058.785923,100,12883,5670
1758102058.8259232,100,12883,5644
1758102058.8659232,100,12883,5624
1758102058.9059231,100,12899,5633
1758102058.945923,100,12899,5630
1758102058.985923,100,12917,5639
1758102059.025923,100,12917,5637
1758102059.0659232,100,12917,5644
1758102059.1059232,100,12934,5647
1758102059.1459231,100,12934,5649
1758102059.185923,100,12950,5659
1758102059.225923,100,12950,5683
1758102059.265923,100,12950,5692
1758102059.3059232,100,12966,5691
1758102059.3459232,100,12966,5703
1758102059.3859231,100,12984,5690
1758102059.425923,100,12984,5666
1758102059.465923,100,12984,5668
1758102059.505923,100,13001,5649
1758102059.5459232,100,13001,5645
1758102059.5859232,100,13018,5634
1758102059.6259232,100,13018,5622
1758102059.665923,100,13018,5637
1758102059.705923,100,13035,5656
1758102059.745923,100,13035,5660
1758102059.785923,100,13035,5654
1758102059.8259232,100,13035,5658
1758102059.8659232,100,13051,5666
1758102059.9059231,100,13051,5682
1758102059.945923,100,13067,5681
1758102059.985923,100,13067,5712
1758102060.025923,100,13067,5710
1758102060.0659232,100,13083,5675
1758102060.1059232,100,13083,5644
1758102060.1459231,100,13100,5632
1758102060.185923,100,13100,5632
1758102060.225923,100,13100,5633
1758102060.265923,100,13117,5629
1758102060.3059232,100,13117,5632
1758102060.3459232,100,13134,5636
1758102060.3859231,100,13134,5633
1758102060.425923,100,13134,5638
1758102060.465923,100,13150,5653
1758102060.505923,100,13150,5663
1758102060.5459232,100,13168,5679
1758102060.5859232,100,13168,5692
1758102060.6259232,100,13168,5712
1758102060.665923,100,13184,5712
1758102060.705923,100,13184,5693
1758102060.745923,100,13184,5674
1758102060.785923,100,13201,5663
1758102060.8259232,100,13201,5639
1758102060.8659232,100,13216,5633
1758102060.9059231,100,13216,5632
1758102060.945923,100,13216,5640
1758102060.985923,100,13233,5654
1758102061.025923,100,13233,5655
1758102061.0659232,100,13251,5662
1758102061.1059232,100,13251,5663
1758102061.1459231,100,13251,5667
1758102061.185923,100,13268,5682
1758102061.225923,100,13268,5688
1758102061.265923,100,13283,5712
1758102061.3059232,100,13283,5725
1758102061.3459232,100,13283,5730
1758102061.3859231,100,13300,5720
1758102061.425923,100,13300,5708
1758102061.465923,100,13316,5686
1758102061.505923,100,13316,5675
1758102061.5459232,100,13316,5665
1758102061.5859232,100,13334,5666
1758102061.6259232,100,13334,5669
1758102061.665923,100,13350,5673
1758102061.705923,100,13350,5676
1758102061.745923,100,13350,5673
1758102061.785923,100,13367,5683
1758102061.8259232,100,13367,5701
1758102061.8659232,100,13367,5713
1758102061.9059231,100,13384,5705
1758102061.945923,100,13384,5719
1758102061.985923,100,13401,5726
1758102062.025923,100,13401,5737
1758102062.0659232,100,13401,5735
1758102062.1059232,100,13415,5713
1758102062.1459231,100,13415,5681
1758102062.185923,100,13432,5669
1758102062.225923,100,13432,5676
1758102062.265923,100,13432,5670
1758102062.3059232,100,13449,5689
1758102062.3459232,100,13449,5683
1758102062.3859231,100,13468,5680
1758102062.425923,100,13468,5683
1758102062.465923,100,13468,5694
1758102062.505923,100,13485,5695
1758102062.5459232,100,13485,5712
1758102062.5859232,100,13502,5721
1758102062.6259232,100,13502,5728
1758102062.665923,100,13502,5739
1758102062.705923,100,13518,5740
1758102062.745923,100,13518,5723
1758102062.785923,100,13535,5694
1758102062.8259232,100,13535,5683
1758102062.8659232,100,13535,5659
1758102062.9059231,100,13552,5669
1758102062.945923,100,13552,5661
1758102062.985923,100,13567,5662
1758102063.025923,100,13567,5662
1758102063.0659232,100,13567,5665
1758102063.1059232,100,13585,5659
1758102063.1459231,100,13585,5682
1758102063.185923,100,13585,5658
1758102063.225923,100,13603,5693
1758102063.265923,100,13603,5694
1758102063.3059232,100,13624,5710
1758102063.3459232,100,13624,5720
1758102063.3859231,100,13624,5711
1758102063.425923,100,13639,5693
1758102063.465923,100,13639,5676
1758102063.505923,100,13655,5652
1758102063.5459232,100,13655,5635
1758102063.5859232,100,13655,5649
1758102063.6259232,100,13675,5645
1758102063.665923,100,13675,5638
1758102063.705923,100,13691,5654
1758102063.745923,100,13691,5656
1758102063.785923,100,13691,5681
1758102063.8259232,100,13708,5677
1758102063.8659232,100,13708,5689
1758102063.9059231,100,13725,5687
1758102063.945923,100,13725,5702
1758102063.985923,100,13725,5709
1758102064.025923,100,13742,5708
1758102064.0659232,100,13742,5721
1758102064.1059232,100,13758,5706
1758102064.1459231,100,13758,5696
1758102064.185923,100,13758,5678
1758102064.225923,100,13774,5670
1758102064.265923,100,13774,5656
1758102064.3059232,100,13790,5665
1758102064.3459232,100,13790,5671
1758102064.3859231,100,13790,5670
1758102064.425923,100,13809,5695
1758102064.465923,100,13809,5695
1758102064.505923,100,13809,5695
1758102064.5459232,100,13825,5700
1758102064.5859232,100,13825,5709
1758102064.6259232,100,13842,5719
1758102064.665923,100,13842,5718
1758102064.705923,100,13842,5732
1758102064.745923,100,13857,5729
1758102064.785923,100,13857,5699
1758102064.8259232,100,13874,5698
1758102064.8659232,100,13874,5670
1758102064.9059231,100,13874,5686
1758102064.945923,100,13891,5676
1758102064.985923,100,13891,5696
1758102065.025923,100,13910,5701
1758102065.0659232,100,13910,5694
1758102065.1059232,100,13910,5705
1758102065.1459231,100,13924,5709
1758102065.185923,100,13924,5711
1758102065.225923,100,13942,5722
1758102065.265923,100,13942,5737
1758102065.3059232,100,13942,5745
1758102065.3459232,100,13958,5749
1758102065.3859231,100,13958,5769
1758102065.425923,100,13975,5737
1758102065.465923,100,13975,5703
1758102065.505923,100,13975,5711
1758102065.5459232,100,13990,5702
1758102065.5859232,100,13990,5711
1758102065.6259232,100,13990,5702
1758102065.665923,100,14007,5692
1758102065.705923,100,14007,5695
1758102065.745923,100,14025,5717
1758102065.785923,100,14025,5718
1758102065.8259232,100,14025,5726
1758102065.8659232,100,14042,5721
1758102065.9059231,100,14042,5742
1758102065.945923,100,14057,5748
1758102065.985923,100,14057,5742
1758102066.025923,100,14057,5749
1758102066.0659232,100,14074,5740
1758102066.1059232,100,14074,5718
1758102066.1459231,100,14090,5702
1758102066.185923,100,14090,5692
1758102066.225923,100,14090,5693
1758102066.265923,100,14108,5701
1758102066.3059232,100,14108,5705
1758102066.3459232,100,14124,5699
1758102066.3859231,100,14124,5700
1758102066.425923,100,14124,5714
1758102066.465923,100,14141,5717
1758102066.505923,100,14141,5726
1758102066.5459232,100,14158,5729
1758102066.5859232,100,14158,5737
1758102066.6259232,100,14158,5763
1758102066.665923,100,14175,5754
1758102066.705923,100,14175,5733
1758102066.745923,100,14190,5716
1758102066.785923,100,14190,5694
1758102066.8259232,100,14190,5706
1758102066.8659232,100,14206,5688
1758102066.9059231,100,14206,5704
1758102066.945923,100,14225,5693
1758102066.985923,100,14225,5716
1758102067.025923,100,14225,5722
1758102067.0659232,100,14242,5731
1758102067.1059232,100,14242,5728
1758102067.1459231,100,14242,5732
1758102067.185923,100,14258,5731
1758102067.225923,100,14258,5740
1758102067.265923,100,14274,5752
1758102067.3059232,100,14274,5746
1758102067.3459232,100,14274,5726
1758102067.3859231,100,14290,5711
1758102067.425923,100,14290,5698
1758102067.465923,100,14307,5702
1758102067.505923,100,14307,5694
1758102067.5459232,100,14307,5697
1758102067.5859232,100,14326,5717
1758102067.6259232,100,14326,5714
1758102067.665923,100,14341,5707
1758102067.705923,100,14341,5712
1758102067.745923,100,14341,5722
1758102067.785923,100,14357,5725
1758102067.8259232,100,14357,5735
1758102067.8659232,100,14375,5754
1758102067.9059231,100,14375,5762
1758102067.945923,100,14375,5755
1758102067.985923,100,14391,5734
1758102068.025923,100,14391,5708
1758102068.0659232,100,14406,5706
1758102068.1059232,100,14406,5701
1758102068.1459231,100,14406,5704
1758102068.185923,100,14422,5692
1758102068.225923,100,14422,5695
1758102068.265923,100,14442,5697
1758102068.3059232,100,14442,5693
1758102068.3459232,100,14442,5703
