LocalTimestamp,EmotiBitTimestamp,PacketNumber,DataLength,TypeTag,ProtocolVersion,DataReliability,PG
1739464919.653448,2277452.000,36025,3,PG,1,100,11432
1739464919.653448,2277452.000,36025,3,PG,1,100,11445
1739464919.653448,2277452.000,36025,3,PG,1,100,11461
1739464919.693448,2277492.000,36041,2,PG,1,100,11487
1739464919.733448,2277532.000,36041,2,PG,1,100,11529
1739464919.773448,2277572.000,36059,3,PG,1,100,11553
1739464919.813448,2277612.000,36059,3,PG,1,100,11556
1739464919.853448,2277652.000,36059,3,PG,1,100,11565
1739464919.893448,2277692.000,36074,2,PG,1,100,11574
1739464919.933448,2277732.000,36074,2,PG,1,100,11597
1739464919.973448,2277772.000,36090,3,PG,1,100,11611
1739464920.013448,2277812.000,36090,3,PG,1,100,11640
1739464920.053447,2277852.000,36090,3,PG,1,100,11651
1739464920.093447,2277892.000,36106,3,PG,1,100,11677
1739464920.133447,2277932.000,36106,3,PG,1,100,11663
1739464920.173447,2277972.000,36106,3,PG,1,100,11600
1739464920.213447,2278012.000,36123,2,PG,1,100,11494
1739464920.253447,2278052.000,36123,2,PG,1,100,11449
1739464920.293447,2278092.000,36141,4,PG,1,100,11440
1739464920.333447,2278132.000,36141,4,PG,1,100,11459
1739464920.373447,2278172.000,36141,4,PG,1,100,11502
1739464920.413447,2278212.000,36141,4,PG,1,100,11530
1739464920.453447,2278252.000,36160,3,PG,1,100,11531
1739464920.493447,2278292.000,36160,3,PG,1,100,11552
1739464920.533447,2278332.000,36160,3,PG,1,100,11555
1739464920.573447,2278372.000,36177,3,PG,1,100,11564
1739464920.613446,2278412.000,36177,3,PG,1,100,11572
1739464920.653446,2278452.000,36177,3,PG,1,100,11612
1739464920.693446,2278492.000,36191,2,PG,1,100,11628
1739464920.733446,2278532.000,36191,2,PG,1,100,11653
1739464920.773446,2278572.000,36207,3,PG,1,100,11661
1739464920.813446,2278612.000,36207,3,PG,1,100,11673
1739464920.853446,2278652.000,36207,3,PG,1,100,11627
1739464920.893446,2278692.000,36224,2,PG,1,100,11529
1739464920.933446,2278732.000,36224,2,PG,1,100,11445
1739464920.973446,2278772.000,36240,3,PG,1,100,11433
1739464921.013446,2278812.000,36240,3,PG,1,100,11426
1739464921.053446,2278852.000,36240,3,PG,1,100,11445
1739464921.093446,2278892.000,36254,2,PG,1,100,11477
1739464921.133445,2278932.000,36254,2,PG,1,100,11513
1739464921.173445,2278972.000,36273,3,PG,1,100,11525
1739464921.213445,2279012.000,36273,3,PG,1,100,11531
1739464921.253445,2279052.000,36273,3,PG,1,100,11536
1739464921.293445,2279092.000,36289,2,PG,1,100,11542
1739464921.333445,2279132.000,36289,2,PG,1,100,11557
1739464921.373445,2279172.000,36305,3,PG,1,100,11579
1739464921.413445,2279212.000,36305,3,PG,1,100,11604
1739464921.453445,2279252.000,36305,3,PG,1,100,11620
1739464921.493445,2279292.000,36320,2,PG,1,100,11634
1739464921.533445,2279332.000,36320,2,PG,1,100,11664
1739464921.573445,2279372.000,36337,3,PG,1,100,11674
1739464921.613444,2279412.000,36337,3,PG,1,100,11610
1739464921.653444,2279452.000,36337,3,PG,1,100,11505
1739464921.693444,2279492.000,36353,2,PG,1,100,11439
1739464921.733444,2279532.000,36353,2,PG,1,100,11429
1739464921.773444,2279572.000,36369,3,PG,1,100,11433
1739464921.813444,2279612.000,36369,3,PG,1,100,11451
1739464921.853444,2279652.000,36369,3,PG,1,100,11476
1739464921.893444,2279692.000,36386,3,PG,1,100,11500
1739464921.933444,2279732.000,36386,3,PG,1,100,11513
1739464921.973444,2279772.000,36386,3,PG,1,100,11513
1739464922.013444,2279812.000,36402,2,PG,1,100,11544
1739464922.053444,2279852.000,36402,2,PG,1,100,11559
1739464922.093443,2279892.000,36418,3,PG,1,100,11565
1739464922.133443,2279932.000,36418,3,PG,1,100,11596
1739464922.173443,2279972.000,36418,3,PG,1,100,11616
1739464922.213443,2280012.000,36435,2,PG,1,100,11630
1739464922.253443,2280052.000,36435,2,PG,1,100,11652
1739464922.293443,2280092.000,36450,3,PG,1,100,11649
1739464922.333443,2280132.000,36450,3,PG,1,100,11669
1739464922.373443,2280172.000,36450,3,PG,1,100,11662
1739464922.413443,2280212.000,36465,2,PG,1,100,11583
1739464922.453443,2280252.000,36465,2,PG,1,100,11490
1739464922.493443,2280292.000,36482,3,PG,1,100,11436
1739464922.533443,2280332.000,36482,3,PG,1,100,11441
1739464922.573442,2280372.000,36482,3,PG,1,100,11467
1739464922.613442,2280412.000,36499,2,PG,1,100,11508
1739464922.653442,2280452.000,36499,2,PG,1,100,11537
1739464922.693442,2280492.000,36517,3,PG,1,100,11546
1739464922.733442,2280532.000,36517,3,PG,1,100,11538
1739464922.773442,2280572.000,36517,3,PG,1,100,11540
1739464922.813442,2280612.000,36532,2,PG,1,100,11550
1739464922.853442,2280652.000,36532,2,PG,1,100,11573
1739464922.893442,2280692.000,36548,3,PG,1,100,11585
1739464922.933442,2280732.000,36548,3,PG,1,100,11619
1739464922.973442,2280772.000,36548,3,PG,1,100,11642
1739464923.013442,2280812.000,36564,2,PG,1,100,11647
1739464923.053442,2280852.000,36564,2,PG,1,100,11671
1739464923.093441,2280892.000,36580,3,PG,1,100,11665
1739464923.133441,2280932.000,36580,3,PG,1,100,11635
1739464923.173441,2280972.000,36580,3,PG,1,100,11544
1739464923.213441,2281012.000,36597,2,PG,1,100,11468
1739464923.253441,2281052.000,36597,2,PG,1,100,11454
1739464923.293441,2281092.000,36613,3,PG,1,100,11457
1739464923.333441,2281132.000,36613,3,PG,1,100,11492
1739464923.373441,2281172.000,36613,3,PG,1,100,11525
1739464923.413441,2281212.000,36631,3,PG,1,100,11555
1739464923.453441,2281252.000,36631,3,PG,1,100,11535
1739464923.493441,2281292.000,36631,3,PG,1,100,11554
1739464923.533441,2281332.000,36648,2,PG,1,100,11549
1739464923.573441,2281372.000,36648,2,PG,1,100,11571
1739464923.613441,2281412.000,36663,3,PG,1,100,11591
1739464923.653440,2281452.000,36663,3,PG,1,100,11604
1739464923.693440,2281492.000,36663,3,PG,1,100,11619
1739464923.733440,2281532.000,36679,2,PG,1,100,11632
1739464923.773440,2281572.000,36679,2,PG,1,100,11641
1739464923.813440,2281612.000,36696,3,PG,1,100,11669
1739464923.853440,2281652.000,36696,3,PG,1,100,11643
1739464923.893440,2281692.000,36696,3,PG,1,100,11539
1739464923.933440,2281732.000,36712,2,PG,1,100,11443
1739464923.973440,2281772.000,36712,2,PG,1,100,11415
1739464924.013440,2281812.000,36726,3,PG,1,100,11422
1739464924.053440,2281852.000,36726,3,PG,1,100,11441
1739464924.093440,2281892.000,36726,3,PG,1,100,11470
1739464924.132940,2281931.500,36742,2,PG,1,100,11481
1739464924.172440,2281971.000,36742,2,PG,1,100,11483
1739464924.212773,2282011.333,36761,3,PG,1,100,11488
1739464924.253106,2282051.667,36761,3,PG,1,100,11477
1739464924.293439,2282092.000,36761,3,PG,1,100,11488
1739464924.332939,2282131.500,36777,2,PG,1,100,11522
1739464924.372439,2282171.000,36777,2,PG,1,100,11531
1739464924.412439,2282211.000,36792,3,PG,1,100,11557
1739464924.452439,2282251.000,36792,3,PG,1,100,11575
1739464924.492439,2282291.000,36792,3,PG,1,100,11593
1739464924.532439,2282331.000,36808,2,PG,1,100,11618
1739464924.572439,2282371.000,36808,2,PG,1,100,11629
1739464924.612439,2282411.000,36825,3,PG,1,100,11581
1739464924.652439,2282451.000,36825,3,PG,1,100,11477
1739464924.692438,2282491.000,36825,3,PG,1,100,11411
1739464924.732438,2282531.000,36841,3,PG,1,100,11382
1739464924.772438,2282571.000,36841,3,PG,1,100,11391
1739464924.812438,2282611.000,36841,3,PG,1,100,11405
1739464924.852438,2282651.000,36858,2,PG,1,100,11446
1739464924.892438,2282691.000,36858,2,PG,1,100,11463
1739464924.932438,2282731.000,36874,3,PG,1,100,11458
1739464924.972438,2282771.000,36874,3,PG,1,100,11457
1739464925.012438,2282811.000,36874,3,PG,1,100,11460
1739464925.052438,2282851.000,36890,2,PG,1,100,11471
1739464925.092438,2282891.000,36890,2,PG,1,100,11482
1739464925.132438,2282931.000,36907,3,PG,1,100,11484
1739464925.172437,2282971.000,36907,3,PG,1,100,11496
1739464925.212437,2283011.000,36907,3,PG,1,100,11518
1739464925.252437,2283051.000,36923,2,PG,1,100,11538
1739464925.292437,2283091.000,36923,2,PG,1,100,11548
1739464925.332437,2283131.000,36937,3,PG,1,100,11577
1739464925.372437,2283171.000,36937,3,PG,1,100,11584
1739464925.412437,2283211.000,36937,3,PG,1,100,11564
1739464925.452437,2283251.000,36957,3,PG,1,100,11487
1739464925.492437,2283291.000,36957,3,PG,1,100,11440
1739464925.532437,2283331.000,36957,3,PG,1,100,11429
1739464925.572770,2283371.333,36974,3,PG,1,100,11428
1739464925.613103,2283411.667,36974,3,PG,1,100,11453
1739464925.653437,2283452.000,36974,3,PG,1,100,11479
1739464925.699936,2283498.500,36992,2,PG,1,100,11505
1739464925.746436,2283545.000,36992,2,PG,1,100,11515
1739464925.786436,2283585.000,37008,2,PG,1,100,11520
1739464925.826436,2283625.000,37008,2,PG,1,100,11542
1739464925.866436,2283665.000,37023,3,PG,1,100,11537
1739464925.906436,2283705.000,37023,3,PG,1,100,11556
1739464925.946436,2283745.000,37023,3,PG,1,100,11592
1739464925.986436,2283785.000,37039,3,PG,1,100,11617
1739464926.026436,2283825.000,37039,3,PG,1,100,11639
1739464926.066436,2283865.000,37039,3,PG,1,100,11648
1739464926.106436,2283905.000,37055,2,PG,1,100,11661
1739464926.146436,2283945.000,37055,2,PG,1,100,11675
1739464926.186435,2283985.000,37072,3,PG,1,100,11681
1739464926.226435,2284025.000,37072,3,PG,1,100,11618
1739464926.266435,2284065.000,37072,3,PG,1,100,11516
1739464926.306435,2284105.000,37087,2,PG,1,100,11474
1739464926.346435,2284145.000,37087,2,PG,1,100,11466
1739464926.386435,2284185.000,37102,3,PG,1,100,11482
1739464926.426435,2284225.000,37102,3,PG,1,100,11531
1739464926.466435,2284265.000,37102,3,PG,1,100,11555
1739464926.506435,2284305.000,37121,2,PG,1,100,11561
1739464926.546435,2284345.000,37121,2,PG,1,100,11564
1739464926.586435,2284385.000,37138,3,PG,1,100,11567
1739464926.626435,2284425.000,37138,3,PG,1,100,11565
1739464926.666435,2284465.000,37138,3,PG,1,100,11590
1739464926.706434,2284505.000,37154,2,PG,1,100,11627
1739464926.746434,2284545.000,37154,2,PG,1,100,11668
1739464926.786434,2284585.000,37169,3,PG,1,100,11705
1739464926.826434,2284625.000,37169,3,PG,1,100,11707
1739464926.866434,2284665.000,37169,3,PG,1,100,11713
1739464926.906434,2284705.000,37185,2,PG,1,100,11705
1739464926.946434,2284745.000,37185,2,PG,1,100,11612
1739464926.986434,2284785.000,37201,3,PG,1,100,11560
1739464927.026434,2284825.000,37201,3,PG,1,100,11556
1739464927.066434,2284865.000,37201,3,PG,1,100,11582
1739464927.106434,2284905.000,37217,3,PG,1,100,11603
1739464927.146434,2284945.000,37217,3,PG,1,100,11579
1739464927.186434,2284985.000,37217,3,PG,1,100,11536
1739464927.226434,2285025.000,37232,2,PG,1,100,11480
1739464927.266433,2285065.000,37232,2,PG,1,100,11429
1739464927.306433,2285105.000,37248,3,PG,1,100,11417
1739464927.346433,2285145.000,37248,3,PG,1,100,11390
1739464927.386433,2285185.000,37248,3,PG,1,100,11405
1739464927.425933,2285224.500,37264,2,PG,1,100,11411
1739464927.465433,2285264.000,37264,2,PG,1,100,11416
1739464927.505766,2285304.333,37281,3,PG,1,100,11422
1739464927.546100,2285344.667,37281,3,PG,1,100,11401
1739464927.586433,2285385.000,37281,3,PG,1,100,11317
1739464927.625933,2285424.500,37296,2,PG,1,100,11239
1739464927.665433,2285464.000,37296,2,PG,1,100,11185
1739464927.705433,2285504.000,37312,3,PG,1,100,11156
1739464927.745433,2285544.000,37312,3,PG,1,100,11133
1739464927.785432,2285584.000,37312,3,PG,1,100,11127
1739464927.825432,2285624.000,37329,2,PG,1,100,11127
1739464927.865432,2285664.000,37329,2,PG,1,100,11094
1739464927.905432,2285704.000,37347,3,PG,1,100,11063
1739464927.945432,2285744.000,37347,3,PG,1,100,11034
1739464927.985432,2285784.000,37347,3,PG,1,100,11051
1739464928.025432,2285824.000,37363,2,PG,1,100,11080
1739464928.065432,2285864.000,37363,2,PG,1,100,11129
1739464928.105765,2285904.333,37379,3,PG,1,100,11205
1739464928.146098,2285944.667,37379,3,PG,1,100,11305
1739464928.186432,2285985.000,37379,3,PG,1,100,11377
1739464928.225932,2286024.500,37398,2,PG,1,100,11413
1739464928.265431,2286064.000,37398,2,PG,1,100,11452
1739464928.305431,2286104.000,37416,3,PG,1,100,11512
1739464928.345431,2286144.000,37416,3,PG,1,100,11558
1739464928.385431,2286184.000,37416,3,PG,1,100,11618
1739464928.425431,2286224.000,37430,2,PG,1,100,11653
1739464928.465431,2286264.000,37430,2,PG,1,100,11683
1739464928.505431,2286304.000,37447,3,PG,1,100,11734
1739464928.545431,2286344.000,37447,3,PG,1,100,11768
1739464928.585431,2286384.000,37447,3,PG,1,100,11790
1739464928.625431,2286424.000,37464,3,PG,1,100,11807
1739464928.665431,2286464.000,37464,3,PG,1,100,11821
1739464928.705431,2286504.000,37464,3,PG,1,100,11824
1739464928.745430,2286544.000,37480,2,PG,1,100,11841
1739464928.785430,2286584.000,37480,2,PG,1,100,11845
1739464928.825430,2286624.000,37496,3,PG,1,100,11854
1739464928.865430,2286664.000,37496,3,PG,1,100,11843
1739464928.905430,2286704.000,37496,3,PG,1,100,11850
1739464928.945430,2286744.000,37511,2,PG,1,100,11847
1739464928.985430,2286784.000,37511,2,PG,1,100,11830
1739464929.025430,2286824.000,37527,3,PG,1,100,11820
1739464929.065430,2286864.000,37527,3,PG,1,100,11849
1739464929.105430,2286904.000,37527,3,PG,1,100,11875
1739464929.145430,2286944.000,37546,2,PG,1,100,11882
1739464929.185430,2286984.000,37546,2,PG,1,100,11920
1739464929.225430,2287024.000,37564,3,PG,1,100,11927
1739464929.265429,2287064.000,37564,3,PG,1,100,11959
1739464929.305429,2287104.000,37564,3,PG,1,100,11981
1739464929.345429,2287144.000,37578,2,PG,1,100,11986
1739464929.385429,2287184.000,37578,2,PG,1,100,11998
1739464929.425429,2287224.000,37594,3,PG,1,100,12011
1739464929.465429,2287264.000,37594,3,PG,1,100,12037
1739464929.505429,2287304.000,37594,3,PG,1,100,12041
1739464929.545429,2287344.000,37611,2,PG,1,100,12083
1739464929.585429,2287384.000,37611,2,PG,1,100,12095
1739464929.625429,2287424.000,37628,3,PG,1,100,12078
1739464929.665429,2287464.000,37628,3,PG,1,100,12110
1739464929.705429,2287504.000,37628,3,PG,1,100,12127
1739464929.745429,2287544.000,37642,2,PG,1,100,12122
1739464929.785429,2287584.000,37642,2,PG,1,100,12124
1739464929.825428,2287624.000,37659,3,PG,1,100,12118
1739464929.865428,2287664.000,37659,3,PG,1,100,12130
1739464929.905428,2287704.000,37659,3,PG,1,100,12152
1739464929.945428,2287744.000,37675,3,PG,1,100,12172
1739464929.985428,2287784.000,37675,3,PG,1,100,12169
1739464930.025428,2287824.000,37675,3,PG,1,100,12170
1739464930.065428,2287864.000,37691,2,PG,1,100,12177
1739464930.105428,2287904.000,37691,2,PG,1,100,12186
1739464930.145428,2287944.000,37706,3,PG,1,100,12192
1739464930.185428,2287984.000,37706,3,PG,1,100,12205
1739464930.225428,2288024.000,37706,3,PG,1,100,12193
1739464930.265428,2288064.000,37722,2,PG,1,100,12202
1739464930.305428,2288104.000,37722,2,PG,1,100,12201
1739464930.345428,2288144.000,37738,3,PG,1,100,12197
1739464930.385427,2288184.000,37738,3,PG,1,100,12208
1739464930.425427,2288224.000,37738,3,PG,1,100,12212
1739464930.465427,2288264.000,37756,2,PG,1,100,12229
1739464930.505427,2288304.000,37756,2,PG,1,100,12223
1739464930.545427,2288344.000,37775,4,PG,1,100,12222
1739464930.585427,2288384.000,37775,4,PG,1,100,12220
1739464930.625427,2288424.000,37775,4,PG,1,100,12216
1739464930.665427,2288464.000,37775,4,PG,1,100,12230
1739464930.705427,2288504.000,37791,2,PG,1,100,12232
1739464930.745427,2288544.000,37791,2,PG,1,100,12252
1739464930.785427,2288584.000,37807,3,PG,1,100,12257
1739464930.825427,2288624.000,37807,3,PG,1,100,12261
1739464930.865427,2288664.000,37807,3,PG,1,100,12265
1739464930.905426,2288704.000,37824,2,PG,1,100,12288
1739464930.945426,2288744.000,37824,2,PG,1,100,12311
1739464930.985426,2288784.000,37840,3,PG,1,100,12293
1739464931.025426,2288824.000,37840,3,PG,1,100,12310
1739464931.065426,2288864.000,37840,3,PG,1,100,12311
1739464931.105426,2288904.000,37855,2,PG,1,100,12315
1739464931.145426,2288944.000,37855,2,PG,1,100,12324
1739464931.185426,2288984.000,37873,3,PG,1,100,12324
1739464931.225426,2289024.000,37873,3,PG,1,100,12321
1739464931.265426,2289064.000,37873,3,PG,1,100,12309
1739464931.305426,2289104.000,37889,2,PG,1,100,12294
1739464931.345426,2289144.000,37889,2,PG,1,100,12282
1739464931.385425,2289184.000,37905,3,PG,1,100,12268
1739464931.425425,2289224.000,37905,3,PG,1,100,12267
1739464931.465425,2289264.000,37905,3,PG,1,100,12283
1739464931.505425,2289304.000,37922,3,PG,1,100,12278
1739464931.545425,2289344.000,37922,3,PG,1,100,12285
1739464931.585425,2289384.000,37922,3,PG,1,100,12309
1739464931.625425,2289424.000,37939,2,PG,1,100,12314
1739464931.665425,2289464.000,37939,2,PG,1,100,12315
1739464931.705425,2289504.000,37955,3,PG,1,100,12322
1739464931.745425,2289544.000,37955,3,PG,1,100,12334
1739464931.785425,2289584.000,37955,3,PG,1,100,12338
1739464931.825425,2289624.000,37972,2,PG,1,100,12346
1739464931.865425,2289664.000,37972,2,PG,1,100,12362
1739464931.905424,2289704.000,37988,3,PG,1,100,12373
1739464931.945424,2289744.000,37988,3,PG,1,100,12370
1739464931.985424,2289784.000,37988,3,PG,1,100,12347
1739464932.025424,2289824.000,38002,2,PG,1,100,12339
1739464932.065424,2289864.000,38002,2,PG,1,100,12311
1739464932.105424,2289904.000,38018,3,PG,1,100,12271
1739464932.145424,2289944.000,38018,3,PG,1,100,12258
1739464932.185424,2289984.000,38018,3,PG,1,100,12256
1739464932.225424,2290024.000,38035,2,PG,1,100,12261
1739464932.265424,2290064.000,38035,2,PG,1,100,12284
1739464932.305424,2290104.000,38053,3,PG,1,100,12289
1739464932.345424,2290144.000,38053,3,PG,1,100,12295
1739464932.385423,2290184.000,38053,3,PG,1,100,12290
1739464932.425423,2290224.000,38067,2,PG,1,100,12284
1739464932.465423,2290264.000,38067,2,PG,1,100,12312
1739464932.505423,2290304.000,38084,3,PG,1,100,12325
1739464932.545423,2290344.000,38084,3,PG,1,100,12321
1739464932.585423,2290384.000,38084,3,PG,1,100,12320
1739464932.625423,2290424.000,38101,2,PG,1,100,12321
1739464932.665423,2290464.000,38101,2,PG,1,100,12327
1739464932.705423,2290504.000,38117,3,PG,1,100,12321
1739464932.745423,2290544.000,38117,3,PG,1,100,12324
1739464932.785423,2290584.000,38117,3,PG,1,100,12285
1739464932.825423,2290624.000,38132,2,PG,1,100,12263
1739464932.865422,2290664.000,38132,2,PG,1,100,12258
1739464932.905422,2290704.000,38148,3,PG,1,100,12255
1739464932.945422,2290744.000,38148,3,PG,1,100,12270
1739464932.985422,2290784.000,38148,3,PG,1,100,12262
1739464933.025422,2290824.000,38164,3,PG,1,100,12295
1739464933.065422,2290864.000,38164,3,PG,1,100,12308
1739464933.105422,2290904.000,38164,3,PG,1,100,12315
1739464933.145422,2290944.000,38182,2,PG,1,100,12329
1739464933.185422,2290984.000,38182,2,PG,1,100,12352
1739464933.225422,2291024.000,38200,2,PG,1,100,12380
1739464933.265422,2291064.000,38200,2,PG,1,100,12408
1739464933.309755,2291108.333,38215,3,PG,1,100,12418
1739464933.354088,2291152.667,38215,3,PG,1,100,12429
1739464933.398422,2291197.000,38215,3,PG,1,100,12449
1739464933.438421,2291237.000,38231,2,PG,1,100,12452
1739464933.478421,2291277.000,38231,2,PG,1,100,12449
1739464933.518421,2291317.000,38248,3,PG,1,100,12471
1739464933.558421,2291357.000,38248,3,PG,1,100,12464
1739464933.598421,2291397.000,38248,3,PG,1,100,12453
1739464933.638421,2291437.000,38265,2,PG,1,100,12435
1739464933.678421,2291477.000,38265,2,PG,1,100,12439
1739464933.718421,2291517.000,38279,3,PG,1,100,12449
1739464933.758421,2291557.000,38279,3,PG,1,100,12461
1739464933.798421,2291597.000,38279,3,PG,1,100,12474
1739464933.838421,2291637.000,38296,2,PG,1,100,12477
1739464933.878421,2291677.000,38296,2,PG,1,100,12468
1739464933.918421,2291717.000,38312,3,PG,1,100,12470
1739464933.958421,2291757.000,38312,3,PG,1,100,12472
1739464933.998420,2291797.000,38312,3,PG,1,100,12470
1739464934.038420,2291837.000,38330,3,PG,1,100,12477
1739464934.078420,2291877.000,38330,3,PG,1,100,12497
1739464934.118420,2291917.000,38330,3,PG,1,100,12517
1739464934.158420,2291957.000,38345,2,PG,1,100,12522
1739464934.198420,2291997.000,38345,2,PG,1,100,12533
1739464934.238420,2292037.000,38361,3,PG,1,100,12562
1739464934.278420,2292077.000,38361,3,PG,1,100,12575
1739464934.318420,2292117.000,38361,3,PG,1,100,12571
1739464934.358420,2292157.000,38377,2,PG,1,100,12581
1739464934.398420,2292197.000,38377,2,PG,1,100,12577
1739464934.438420,2292237.000,38393,3,PG,1,100,12566
1739464934.478420,2292277.000,38393,3,PG,1,100,12548
1739464934.518419,2292317.000,38393,3,PG,1,100,12516
1739464934.558419,2292357.000,38408,2,PG,1,100,12456
1739464934.598419,2292397.000,38408,2,PG,1,100,12359
1739464934.638419,2292437.000,38425,3,PG,1,100,12183
1739464934.678419,2292477.000,38425,3,PG,1,100,12040
1739464934.718419,2292517.000,38425,3,PG,1,100,11938
1739464934.758419,2292557.000,38441,2,PG,1,100,11879
1739464934.798419,2292597.000,38441,2,PG,1,100,11847
1739464934.838419,2292637.000,38458,3,PG,1,100,11803
1739464934.878419,2292677.000,38458,3,PG,1,100,11805
1739464934.918419,2292717.000,38458,3,PG,1,100,11816
1739464934.958419,2292757.000,38472,2,PG,1,100,11856
1739464934.998418,2292797.000,38472,2,PG,1,100,11884
1739464935.038418,2292837.000,38488,3,PG,1,100,11932
1739464935.078418,2292877.000,38488,3,PG,1,100,11993
1739464935.118418,2292917.000,38488,3,PG,1,100,12076
1739464935.158418,2292957.000,38505,2,PG,1,100,12187
1739464935.198418,2292997.000,38505,2,PG,1,100,12253
1739464935.238418,2293037.000,38521,3,PG,1,100,12290
1739464935.278418,2293077.000,38521,3,PG,1,100,12333
1739464935.318418,2293117.000,38521,3,PG,1,100,12369
1739464935.358418,2293157.000,38535,2,PG,1,100,12406
1739464935.398418,2293197.000,38535,2,PG,1,100,12444
1739464935.438418,2293237.000,38551,3,PG,1,100,12475
1739464935.478417,2293277.000,38551,3,PG,1,100,12501
1739464935.518417,2293317.000,38551,3,PG,1,100,12515
1739464935.558417,2293357.000,38570,3,PG,1,100,12516
1739464935.598417,2293397.000,38570,3,PG,1,100,12510
1739464935.638417,2293437.000,38570,3,PG,1,100,12514
1739464935.678417,2293477.000,38590,3,PG,1,100,12517
1739464935.718417,2293517.000,38590,3,PG,1,100,12509
1739464935.758417,2293557.000,38590,3,PG,1,100,12493
1739464935.798417,2293597.000,38607,3,PG,1,100,12459
1739464935.838417,2293637.000,38607,3,PG,1,100,12430
1739464935.878417,2293677.000,38607,3,PG,1,100,12399
1739464935.918417,2293717.000,38623,2,PG,1,100,12345
1739464935.958416,2293757.000,38623,2,PG,1,100,12332
1739464935.998416,2293797.000,38637,3,PG,1,100,12307
1739464936.038416,2293837.000,38637,3,PG,1,100,12251
1739464936.078416,2293877.000,38637,3,PG,1,100,12124
1739464936.118416,2293917.000,38653,2,PG,1,100,12053
1739464936.158416,2293957.000,38653,2,PG,1,100,12013
1739464936.198416,2293997.000,38670,3,PG,1,100,12044
1739464936.238416,2294037.000,38670,3,PG,1,100,12066
1739464936.278416,2294077.000,38670,3,PG,1,100,12108
1739464936.318416,2294117.000,38688,2,PG,1,100,12142
1739464936.358416,2294157.000,38688,2,PG,1,100,12139
1739464936.398416,2294197.000,38704,3,PG,1,100,12129
1739464936.438416,2294237.000,38704,3,PG,1,100,12121
1739464936.478415,2294277.000,38704,3,PG,1,100,12137
1739464936.518415,2294317.000,38721,2,PG,1,100,12166
1739464936.558415,2294357.000,38721,2,PG,1,100,12194
1739464936.598415,2294397.000,38737,3,PG,1,100,12238
1739464936.638415,2294437.000,38737,3,PG,1,100,12257
1739464936.678415,2294477.000,38737,3,PG,1,100,12285
1739464936.718415,2294517.000,38754,2,PG,1,100,12300
1739464936.758415,2294557.000,38754,2,PG,1,100,12254
1739464936.798415,2294597.000,38769,3,PG,1,100,12133
1739464936.838415,2294637.000,38769,3,PG,1,100,12047
1739464936.878415,2294677.000,38769,3,PG,1,100,12026
1739464936.918415,2294717.000,38787,2,PG,1,100,12062
1739464936.958415,2294757.000,38787,2,PG,1,100,12094
1739464936.998415,2294797.000,38805,3,PG,1,100,12142
1739464937.038414,2294837.000,38805,3,PG,1,100,12170
1739464937.078414,2294877.000,38805,3,PG,1,100,12195
1739464937.118414,2294917.000,38821,3,PG,1,100,12211
1739464937.158414,2294957.000,38821,3,PG,1,100,12228
1739464937.198414,2294997.000,38821,3,PG,1,100,12248
1739464937.238414,2295037.000,38836,2,PG,1,100,12290
1739464937.278414,2295077.000,38836,2,PG,1,100,12306
1739464937.318414,2295117.000,38852,3,PG,1,100,12327
1739464937.358414,2295157.000,38852,3,PG,1,100,12353
1739464937.398414,2295197.000,38852,3,PG,1,100,12349
1739464937.438414,2295237.000,38868,2,PG,1,100,12333
1739464937.478414,2295277.000,38868,2,PG,1,100,12225
1739464937.518414,2295317.000,38885,3,PG,1,100,12101
1739464937.558414,2295357.000,38885,3,PG,1,100,12070
1739464937.598413,2295397.000,38885,3,PG,1,100,12093
1739464937.638413,2295437.000,38900,2,PG,1,100,12143
1739464937.678413,2295477.000,38900,2,PG,1,100,12191
1739464937.718413,2295517.000,38918,3,PG,1,100,12221
1739464937.758413,2295557.000,38918,3,PG,1,100,12240
1739464937.798413,2295597.000,38918,3,PG,1,100,12266
1739464937.838413,2295637.000,38935,2,PG,1,100,12279
1739464937.878413,2295677.000,38935,2,PG,1,100,12294
1739464937.918413,2295717.000,38951,3,PG,1,100,12321
1739464937.958413,2295757.000,38951,3,PG,1,100,12327
1739464937.998413,2295797.000,38951,3,PG,1,100,12348
1739464938.038413,2295837.000,38966,2,PG,1,100,12364
1739464938.078413,2295877.000,38966,2,PG,1,100,12383
1739464938.118412,2295917.000,38982,3,PG,1,100,12401
1739464938.158412,2295957.000,38982,3,PG,1,100,12408
1739464938.198412,2295997.000,38982,3,PG,1,100,12344
1739464938.238412,2296037.000,39000,2,PG,1,100,12199
1739464938.278412,2296077.000,39000,2,PG,1,100,12097
1739464938.318412,2296117.000,39016,3,PG,1,100,12104
1739464938.358412,2296157.000,39016,3,PG,1,100,12135
1739464938.398412,2296197.000,39016,3,PG,1,100,12193
1739464938.438412,2296237.000,39032,2,PG,1,100,12247
1739464938.478412,2296277.000,39032,2,PG,1,100,12289
1739464938.518412,2296317.000,39049,3,PG,1,100,12285
1739464938.558412,2296357.000,39049,3,PG,1,100,12282
1739464938.598411,2296397.000,39049,3,PG,1,100,12303
1739464938.638411,2296437.000,39065,3,PG,1,100,12314
1739464938.678411,2296477.000,39065,3,PG,1,100,12339
1739464938.718411,2296517.000,39065,3,PG,1,100,12354
1739464938.758411,2296557.000,39082,2,PG,1,100,12374
1739464938.798411,2296597.000,39082,2,PG,1,100,12380
1739464938.838411,2296637.000,39099,3,PG,1,100,12398
1739464938.878411,2296677.000,39099,3,PG,1,100,12414
1739464938.918411,2296717.000,39099,3,PG,1,100,12412
1739464938.958411,2296757.000,39113,2,PG,1,100,12409
1739464938.998411,2296797.000,39113,2,PG,1,100,12348
1739464939.038411,2296837.000,39129,3,PG,1,100,12260
1739464939.078410,2296877.000,39129,3,PG,1,100,12181
1739464939.118410,2296917.000,39129,3,PG,1,100,12176
1739464939.158410,2296957.000,39146,2,PG,1,100,12208
1739464939.198410,2296997.000,39146,2,PG,1,100,12255
1739464939.238410,2297037.000,39162,3,PG,1,100,12277
1739464939.278410,2297077.000,39162,3,PG,1,100,12311
1739464939.318410,2297117.000,39162,3,PG,1,100,12319
1739464939.358410,2297157.000,39178,2,PG,1,100,12316
1739464939.398410,2297197.000,39178,2,PG,1,100,12321
1739464939.438410,2297237.000,39194,3,PG,1,100,12328
1739464939.478410,2297277.000,39194,3,PG,1,100,12349
1739464939.518410,2297317.000,39194,3,PG,1,100,12355
1739464939.558409,2297357.000,39211,2,PG,1,100,12372
1739464939.598409,2297397.000,39211,2,PG,1,100,12379
1739464939.638409,2297437.000,39227,3,PG,1,100,12386
1739464939.678409,2297477.000,39227,3,PG,1,100,12400
1739464939.718409,2297517.000,39227,3,PG,1,100,12400
1739464939.758409,2297557.000,39242,2,PG,1,100,12334
1739464939.798409,2297597.000,39242,2,PG,1,100,12252
1739464939.838409,2297637.000,39259,3,PG,1,100,12194
1739464939.878409,2297677.000,39259,3,PG,1,100,12193
1739464939.918409,2297717.000,39259,3,PG,1,100,12213
1739464939.958409,2297757.000,39275,2,PG,1,100,12241
1739464939.998409,2297797.000,39275,2,PG,1,100,12262
1739464940.038409,2297837.000,39291,3,PG,1,100,12281
1739464940.078408,2297877.000,39291,3,PG,1,100,12292
1739464940.118408,2297917.000,39291,3,PG,1,100,12276
1739464940.158408,2297957.000,39307,3,PG,1,100,12281
1739464940.198408,2297997.000,39307,3,PG,1,100,12263
1739464940.238408,2298037.000,39307,3,PG,1,100,12264
1739464940.278408,2298077.000,39322,2,PG,1,100,12281
1739464940.318408,2298117.000,39322,2,PG,1,100,12283
1739464940.358408,2298157.000,39338,3,PG,1,100,12296
1739464940.398408,2298197.000,39338,3,PG,1,100,12285
1739464940.438408,2298237.000,39338,3,PG,1,100,12206
1739464940.478408,2298277.000,39355,2,PG,1,100,12073
1739464940.518408,2298317.000,39355,2,PG,1,100,12002
1739464940.558408,2298357.000,39371,3,PG,1,100,11998
1739464940.598408,2298397.000,39371,3,PG,1,100,12015
1739464940.638407,2298437.000,39371,3,PG,1,100,12054
1739464940.677907,2298476.500,39385,2,PG,1,100,12078
1739464940.717407,2298516.000,39385,2,PG,1,100,12101
1739464940.757407,2298556.000,39408,4,PG,1,100,12127
1739464940.797407,2298596.000,39408,4,PG,1,100,12146
1739464940.837407,2298636.000,39408,4,PG,1,100,12160
1739464940.877407,2298676.000,39408,4,PG,1,100,12169
1739464940.917407,2298716.000,39424,2,PG,1,100,12185
1739464940.957407,2298756.000,39424,2,PG,1,100,12224
1739464940.997407,2298796.000,39440,2,PG,1,100,12259
1739464941.037407,2298836.000,39440,2,PG,1,100,12286
1739464941.082073,2298880.667,39456,3,PG,1,100,12315
1739464941.126740,2298925.333,39456,3,PG,1,100,12300
1739464941.171407,2298970.000,39456,3,PG,1,100,12256
1739464941.211406,2299010.000,39471,2,PG,1,100,12206
1739464941.251406,2299050.000,39471,2,PG,1,100,12212
1739464941.291406,2299090.000,39487,3,PG,1,100,12246
1739464941.331406,2299130.000,39487,3,PG,1,100,12288
1739464941.371406,2299170.000,39487,3,PG,1,100,12303
1739464941.411406,2299210.000,39503,3,PG,1,100,12310
1739464941.451406,2299250.000,39503,3,PG,1,100,12311
1739464941.491406,2299290.000,39503,3,PG,1,100,12321
1739464941.531406,2299330.000,39520,2,PG,1,100,12319
1739464941.571406,2299370.000,39520,2,PG,1,100,12352
1739464941.611406,2299410.000,39534,3,PG,1,100,12377
1739464941.651406,2299450.000,39534,3,PG,1,100,12376
1739464941.691406,2299490.000,39534,3,PG,1,100,12392
1739464941.731405,2299530.000,39550,2,PG,1,100,12401
1739464941.771405,2299570.000,39550,2,PG,1,100,12412
1739464941.811405,2299610.000,39570,3,PG,1,100,12404
1739464941.851405,2299650.000,39570,3,PG,1,100,12322
1739464941.891405,2299690.000,39570,3,PG,1,100,12248
1739464941.931405,2299730.000,39586,2,PG,1,100,12197
1739464941.971405,2299770.000,39586,2,PG,1,100,12228
1739464942.011405,2299810.000,39600,3,PG,1,100,12265
1739464942.051405,2299850.000,39600,3,PG,1,100,12318
1739464942.091405,2299890.000,39600,3,PG,1,100,12347
1739464942.131405,2299930.000,39618,2,PG,1,100,12367
1739464942.171405,2299970.000,39618,2,PG,1,100,12366
1739464942.211404,2300010.000,39635,3,PG,1,100,12371
1739464942.251404,2300050.000,39635,3,PG,1,100,12373
1739464942.291404,2300090.000,39635,3,PG,1,100,12403
1739464942.331404,2300130.000,39651,2,PG,1,100,12413
1739464942.371404,2300170.000,39651,2,PG,1,100,12417
1739464942.411404,2300210.000,39666,3,PG,1,100,12419
1739464942.451404,2300250.000,39666,3,PG,1,100,12434
1739464942.491404,2300290.000,39666,3,PG,1,100,12442
1739464942.531404,2300330.000,39682,2,PG,1,100,12438
1739464942.571404,2300370.000,39682,2,PG,1,100,12358
1739464942.611404,2300410.000,39698,3,PG,1,100,12249
1739464942.651404,2300450.000,39698,3,PG,1,100,12189
1739464942.691403,2300490.000,39698,3,PG,1,100,12203
1739464942.731403,2300530.000,39714,3,PG,1,100,12267
1739464942.771403,2300570.000,39714,3,PG,1,100,12302
1739464942.811403,2300610.000,39714,3,PG,1,100,12322
1739464942.851403,2300650.000,39732,2,PG,1,100,12323
1739464942.891403,2300690.000,39732,2,PG,1,100,12316
1739464942.931403,2300730.000,39746,3,PG,1,100,12321
1739464942.971403,2300770.000,39746,3,PG,1,100,12329
1739464943.011403,2300810.000,39746,3,PG,1,100,12340
1739464943.051403,2300850.000,39762,2,PG,1,100,12350
1739464943.091403,2300890.000,39762,2,PG,1,100,12357
1739464943.131403,2300930.000,39783,3,PG,1,100,12359
1739464943.171402,2300970.000,39783,3,PG,1,100,12382
1739464943.211402,2301010.000,39783,3,PG,1,100,12374
1739464943.251402,2301050.000,39801,2,PG,1,100,12314
1739464943.291402,2301090.000,39801,2,PG,1,100,12170
1739464943.331402,2301130.000,39815,3,PG,1,100,12104
1739464943.371402,2301170.000,39815,3,PG,1,100,12091
1739464943.411402,2301210.000,39815,3,PG,1,100,12126
1739464943.451402,2301250.000,39831,2,PG,1,100,12171
1739464943.491402,2301290.000,39831,2,PG,1,100,12209
1739464943.531402,2301330.000,39850,3,PG,1,100,12245
1739464943.571402,2301370.000,39850,3,PG,1,100,12289
1739464943.611402,2301410.000,39850,3,PG,1,100,12344
1739464943.651068,2301449.667,39866,3,PG,1,100,12366
1739464943.690735,2301489.333,39866,3,PG,1,100,12377
1739464943.730402,2301529.000,39866,3,PG,1,100,12400
1739464943.770735,2301569.333,39882,3,PG,1,100,12412
1739464943.811068,2301609.667,39882,3,PG,1,100,12426
1739464943.851401,2301650.000,39882,3,PG,1,100,12428
1739464943.891401,2301690.000,39898,2,PG,1,100,12441
1739464943.931401,2301730.000,39898,2,PG,1,100,12439
1739464943.971068,2301769.667,39914,3,PG,1,100,12388
1739464944.010734,2301809.333,39914,3,PG,1,100,12288
1739464944.050401,2301849.000,39914,3,PG,1,100,12251
1739464944.090401,2301889.000,39930,2,PG,1,100,12280
1739464944.130401,2301929.000,39930,2,PG,1,100,12334
1739464944.170401,2301969.000,39949,3,PG,1,100,12401
1739464944.210401,2302009.000,39949,3,PG,1,100,12434
1739464944.250401,2302049.000,39949,3,PG,1,100,12441
1739464944.290400,2302089.000,39963,2,PG,1,100,12436
1739464944.330400,2302129.000,39963,2,PG,1,100,12404
1739464944.370400,2302169.000,39979,3,PG,1,100,12377
1739464944.410400,2302209.000,39979,3,PG,1,100,12359
1739464944.450400,2302249.000,39979,3,PG,1,100,12326
1739464944.490400,2302289.000,39996,2,PG,1,100,12307
1739464944.530400,2302329.000,39996,2,PG,1,100,12285
1739464944.570400,2302369.000,40012,3,PG,1,100,12291
1739464944.610400,2302409.000,40012,3,PG,1,100,12295
1739464944.650400,2302449.000,40012,3,PG,1,100,12318
1739464944.690400,2302489.000,40027,3,PG,1,100,12309
1739464944.730400,2302529.000,40027,3,PG,1,100,12228
1739464944.770399,2302569.000,40027,3,PG,1,100,12145
1739464944.810899,2302609.500,40042,2,PG,1,100,12132
1739464944.851399,2302650.000,40042,2,PG,1,100,12154
1739464944.891066,2302689.667,40062,3,PG,1,100,12204
1739464944.930732,2302729.333,40062,3,PG,1,100,12256
1739464944.970399,2302769.000,40062,3,PG,1,100,12296
1739464945.010399,2302809.000,40078,2,PG,1,100,12333
1739464945.050399,2302849.000,40078,2,PG,1,100,12332
1739464945.090399,2302889.000,40093,3,PG,1,100,12343
1739464945.130399,2302929.000,40093,3,PG,1,100,12348
1739464945.170399,2302969.000,40093,3,PG,1,100,12359
1739464945.210399,2303009.000,40111,2,PG,1,100,12389
1739464945.250398,2303049.000,40111,2,PG,1,100,12395
1739464945.290398,2303089.000,40129,3,PG,1,100,12398
1739464945.330398,2303129.000,40129,3,PG,1,100,12406
1739464945.370398,2303169.000,40129,3,PG,1,100,12420
1739464945.410398,2303209.000,40145,2,PG,1,100,12438
1739464945.450398,2303249.000,40145,2,PG,1,100,12435
1739464945.490398,2303289.000,40162,3,PG,1,100,12389
1739464945.530398,2303329.000,40162,3,PG,1,100,12256
1739464945.570398,2303369.000,40162,3,PG,1,100,12131
1739464945.610398,2303409.000,40178,2,PG,1,100,12108
1739464945.650398,2303449.000,40178,2,PG,1,100,12118
1739464945.690398,2303489.000,40194,3,PG,1,100,12149
1739464945.730397,2303529.000,40194,3,PG,1,100,12191
1739464945.770397,2303569.000,40194,3,PG,1,100,12229
1739464945.810397,2303609.000,40211,2,PG,1,100,12246
1739464945.850397,2303649.000,40211,2,PG,1,100,12266
1739464945.890397,2303689.000,40233,4,PG,1,100,12278
1739464945.930397,2303729.000,40233,4,PG,1,100,12311
1739464945.970397,2303769.000,40233,4,PG,1,100,12339
1739464946.010397,2303809.000,40233,4,PG,1,100,12358
1739464946.050397,2303849.000,40249,2,PG,1,100,12384
1739464946.090397,2303889.000,40249,2,PG,1,100,12395
1739464946.130397,2303929.000,40264,3,PG,1,100,12404
1739464946.170397,2303969.000,40264,3,PG,1,100,12411
1739464946.210397,2304009.000,40264,3,PG,1,100,12429
1739464946.250396,2304049.000,40280,2,PG,1,100,12420
1739464946.290396,2304089.000,40280,2,PG,1,100,12352
1739464946.330396,2304129.000,40296,3,PG,1,100,12258
1739464946.370396,2304169.000,40296,3,PG,1,100,12178
1739464946.410396,2304209.000,40296,3,PG,1,100,12187
1739464946.450396,2304249.000,40312,3,PG,1,100,12236
1739464946.490396,2304289.000,40312,3,PG,1,100,12278
1739464946.530396,2304329.000,40312,3,PG,1,100,12323
1739464946.570396,2304369.000,40327,2,PG,1,100,12330
1739464946.610396,2304409.000,40327,2,PG,1,100,12326
1739464946.650396,2304449.000,40343,3,PG,1,100,12327
1739464946.690396,2304489.000,40343,3,PG,1,100,12333
1739464946.730396,2304529.000,40343,3,PG,1,100,12327
1739464946.770396,2304569.000,40359,2,PG,1,100,12355
1739464946.810395,2304609.000,40359,2,PG,1,100,12371
1739464946.850395,2304649.000,40378,3,PG,1,100,12390
1739464946.890395,2304689.000,40378,3,PG,1,100,12405
1739464946.930395,2304729.000,40378,3,PG,1,100,12402
1739464946.970395,2304769.000,40394,2,PG,1,100,12408
1739464947.010395,2304809.000,40394,2,PG,1,100,12426
1739464947.050395,2304849.000,40409,3,PG,1,100,12410
1739464947.090395,2304889.000,40409,3,PG,1,100,12333
1739464947.130395,2304929.000,40409,3,PG,1,100,12243
1739464947.170395,2304969.000,40426,2,PG,1,100,12213
1739464947.210395,2305009.000,40426,2,PG,1,100,12242
1739464947.250395,2305049.000,40442,3,PG,1,100,12289
1739464947.290395,2305089.000,40442,3,PG,1,100,12318
1739464947.330395,2305129.000,40442,3,PG,1,100,12340
1739464947.370394,2305169.000,40459,2,PG,1,100,12350
1739464947.410394,2305209.000,40459,2,PG,1,100,12338
1739464947.450394,2305249.000,40475,3,PG,1,100,12346
1739464947.490394,2305289.000,40475,3,PG,1,100,12351
1739464947.530394,2305329.000,40475,3,PG,1,100,12370
1739464947.570394,2305369.000,40491,2,PG,1,100,12389
1739464947.610394,2305409.000,40491,2,PG,1,100,12386
1739464947.650394,2305449.000,40507,3,PG,1,100,12393
1739464947.690394,2305489.000,40507,3,PG,1,100,12390
1739464947.730394,2305529.000,40507,3,PG,1,100,12344
1739464947.770394,2305569.000,40523,2,PG,1,100,12248
1739464947.810394,2305609.000,40523,2,PG,1,100,12185
1739464947.850394,2305649.000,40538,3,PG,1,100,12172
1739464947.890393,2305689.000,40538,3,PG,1,100,12244
1739464947.930393,2305729.000,40538,3,PG,1,100,12284
1739464947.970393,2305769.000,40557,3,PG,1,100,12315
1739464948.010393,2305809.000,40557,3,PG,1,100,12326
1739464948.050393,2305849.000,40557,3,PG,1,100,12335
1739464948.090393,2305889.000,40573,2,PG,1,100,12334
1739464948.130393,2305929.000,40573,2,PG,1,100,12336
1739464948.170393,2305969.000,40592,3,PG,1,100,12346
1739464948.210393,2306009.000,40592,3,PG,1,100,12364
1739464948.250393,2306049.000,40592,3,PG,1,100,12384
1739464948.290393,2306089.000,40608,2,PG,1,100,12399
1739464948.330393,2306129.000,40608,2,PG,1,100,12392
1739464948.370392,2306169.000,40624,3,PG,1,100,12331
1739464948.410392,2306209.000,40624,3,PG,1,100,12196
1739464948.450392,2306249.000,40624,3,PG,1,100,12113
1739464948.490392,2306289.000,40643,2,PG,1,100,12104
1739464948.530392,2306329.000,40643,2,PG,1,100,12107
1739464948.570392,2306369.000,40659,3,PG,1,100,12160
1739464948.610392,2306409.000,40659,3,PG,1,100,12188
1739464948.650392,2306449.000,40659,3,PG,1,100,12204
1739464948.690392,2306489.000,40675,2,PG,1,100,12206
1739464948.730392,2306529.000,40675,2,PG,1,100,12212
1739464948.774725,2306573.333,40691,3,PG,1,100,12232
1739464948.819058,2306617.667,40691,3,PG,1,100,12233
1739464948.863391,2306662.000,40691,3,PG,1,100,12216
1739464948.903391,2306702.000,40708,2,PG,1,100,12183
1739464948.943391,2306742.000,40708,2,PG,1,100,12140
1739464948.983391,2306782.000,40725,3,PG,1,100,12118
1739464949.023391,2306822.000,40725,3,PG,1,100,12032
1739464949.063391,2306862.000,40725,3,PG,1,100,11927
1739464949.103391,2306902.000,40739,2,PG,1,100,11848
1739464949.143391,2306942.000,40739,2,PG,1,100,11814
1739464949.183391,2306982.000,40756,3,PG,1,100,11796
1739464949.223391,2307022.000,40756,3,PG,1,100,11791
1739464949.263391,2307062.000,40756,3,PG,1,100,11816
1739464949.303391,2307102.000,40772,2,PG,1,100,11834
1739464949.343390,2307142.000,40772,2,PG,1,100,11830
1739464949.383390,2307182.000,40792,3,PG,1,100,11849
1739464949.423390,2307222.000,40792,3,PG,1,100,11841
1739464949.463390,2307262.000,40792,3,PG,1,100,11867
1739464949.503390,2307302.000,40808,2,PG,1,100,11905
1739464949.543390,2307342.000,40808,2,PG,1,100,11936
1739464949.583390,2307382.000,40823,3,PG,1,100,11961
1739464949.623390,2307422.000,40823,3,PG,1,100,11977
1739464949.663390,2307462.000,40823,3,PG,1,100,11995
1739464949.703390,2307502.000,40839,2,PG,1,100,11934
1739464949.743390,2307542.000,40839,2,PG,1,100,11817
1739464949.783390,2307582.000,40856,3,PG,1,100,11747
1739464949.823390,2307622.000,40856,3,PG,1,100,11711
1739464949.863389,2307662.000,40856,3,PG,1,100,11698
1739464949.903389,2307702.000,40872,2,PG,1,100,11725
1739464949.943389,2307742.000,40872,2,PG,1,100,11755
1739464949.983389,2307782.000,40889,3,PG,1,100,11766
1739464950.023389,2307822.000,40889,3,PG,1,100,11775
1739464950.063389,2307862.000,40889,3,PG,1,100,11782
1739464950.103389,2307902.000,40905,2,PG,1,100,11783
1739464950.143389,2307942.000,40905,2,PG,1,100,11802
1739464950.183389,2307982.000,40922,3,PG,1,100,11826
1739464950.223389,2308022.000,40922,3,PG,1,100,11862
1739464950.263389,2308062.000,40922,3,PG,1,100,11870
1739464950.303389,2308102.000,40938,3,PG,1,100,11909
1739464950.343389,2308142.000,40938,3,PG,1,100,11935
1739464950.383389,2308182.000,40938,3,PG,1,100,11956
1739464950.423388,2308222.000,40952,2,PG,1,100,11989
1739464950.463388,2308262.000,40952,2,PG,1,100,12012
1739464950.503388,2308302.000,40969,3,PG,1,100,12008
1739464950.543388,2308342.000,40969,3,PG,1,100,11913
1739464950.583388,2308382.000,40969,3,PG,1,100,11776
1739464950.623388,2308422.000,40985,2,PG,1,100,11707
1739464950.663388,2308462.000,40985,2,PG,1,100,11697
1739464950.703388,2308502.000,41001,3,PG,1,100,11716
1739464950.743388,2308542.000,41001,3,PG,1,100,11761
1739464950.783388,2308582.000,41001,3,PG,1,100,11789
1739464950.823388,2308622.000,41016,2,PG,1,100,11806
1739464950.863388,2308662.000,41016,2,PG,1,100,11806
1739464950.903388,2308702.000,41034,3,PG,1,100,11798
1739464950.943388,2308742.000,41034,3,PG,1,100,11818
1739464950.983387,2308782.000,41034,3,PG,1,100,11825
1739464951.023387,2308822.000,41054,3,PG,1,100,11847
1739464951.063387,2308862.000,41054,3,PG,1,100,11889
1739464951.103387,2308902.000,41054,3,PG,1,100,11939
1739464951.143387,2308942.000,41071,3,PG,1,100,11979
1739464951.183387,2308982.000,41071,3,PG,1,100,12016
1739464951.223387,2309022.000,41071,3,PG,1,100,12028
1739464951.263387,2309062.000,41087,2,PG,1,100,12056
1739464951.303387,2309102.000,41087,2,PG,1,100,12081
1739464951.343387,2309142.000,41101,3,PG,1,100,11972
1739464951.383387,2309182.000,41101,3,PG,1,100,11864
1739464951.423387,2309222.000,41101,3,PG,1,100,11818
1739464951.463387,2309262.000,41117,2,PG,1,100,11811
1739464951.503386,2309302.000,41117,2,PG,1,100,11847
1739464951.543386,2309342.000,41134,3,PG,1,100,11887
1739464951.583386,2309382.000,41134,3,PG,1,100,11917
1739464951.623386,2309422.000,41134,3,PG,1,100,11933
1739464951.663386,2309462.000,41152,2,PG,1,100,11948
1739464951.703386,2309502.000,41152,2,PG,1,100,11955
1739464951.743386,2309542.000,41167,3,PG,1,100,11957
1739464951.783386,2309582.000,41167,3,PG,1,100,11969
1739464951.823386,2309622.000,41167,3,PG,1,100,11997
1739464951.863386,2309662.000,41183,2,PG,1,100,12023
1739464951.903386,2309702.000,41183,2,PG,1,100,12042
1739464951.943386,2309742.000,41199,3,PG,1,100,12075
1739464951.983385,2309782.000,41199,3,PG,1,100,12075
1739464952.023385,2309822.000,41199,3,PG,1,100,12000
1739464952.063385,2309862.000,41216,3,PG,1,100,11870
1739464952.103385,2309902.000,41216,3,PG,1,100,11796
1739464952.143385,2309942.000,41216,3,PG,1,100,11785
1739464952.183385,2309982.000,41233,2,PG,1,100,11823
1739464952.223385,2310022.000,41233,2,PG,1,100,11859
1739464952.263385,2310062.000,41249,3,PG,1,100,11880
1739464952.303385,2310102.000,41249,3,PG,1,100,11899
1739464952.343385,2310142.000,41249,3,PG,1,100,11889
1739464952.383385,2310182.000,41265,2,PG,1,100,11910
1739464952.423385,2310222.000,41265,2,PG,1,100,11920
1739464952.463384,2310262.000,41282,3,PG,1,100,11939
1739464952.503384,2310302.000,41282,3,PG,1,100,11956
1739464952.543384,2310342.000,41282,3,PG,1,100,11987
1739464952.583384,2310382.000,41298,2,PG,1,100,12005
1739464952.623384,2310422.000,41298,2,PG,1,100,12020
1739464952.663384,2310462.000,41312,3,PG,1,100,12047
1739464952.703384,2310502.000,41312,3,PG,1,100,11940
1739464952.743384,2310542.000,41312,3,PG,1,100,11829
1739464952.783384,2310582.000,41330,2,PG,1,100,11764
1739464952.823384,2310622.000,41330,2,PG,1,100,11765
1739464952.863384,2310662.000,41347,3,PG,1,100,11782
1739464952.903384,2310702.000,41347,3,PG,1,100,11805
1739464952.943383,2310742.000,41347,3,PG,1,100,11842
1739464952.983383,2310782.000,41365,2,PG,1,100,11848
1739464953.023383,2310822.000,41365,2,PG,1,100,11859
1739464953.063383,2310862.000,41380,3,PG,1,100,11858
1739464953.103383,2310902.000,41380,3,PG,1,100,11880
1739464953.143383,2310942.000,41380,3,PG,1,100,11907
1739464953.183383,2310982.000,41397,2,PG,1,100,11922
1739464953.223383,2311022.000,41397,2,PG,1,100,11959
1739464953.263383,2311062.000,41415,3,PG,1,100,11994
1739464953.303383,2311102.000,41415,3,PG,1,100,12021
1739464953.343383,2311142.000,41415,3,PG,1,100,12029
1739464953.383383,2311182.000,41431,3,PG,1,100,12019
1739464953.423383,2311222.000,41431,3,PG,1,100,11896
1739464953.463382,2311262.000,41431,3,PG,1,100,11785
1739464953.503382,2311302.000,41446,2,PG,1,100,11731
1739464953.543382,2311342.000,41446,2,PG,1,100,11738
1739464953.583382,2311382.000,41462,3,PG,1,100,11768
1739464953.623382,2311422.000,41462,3,PG,1,100,11820
1739464953.663382,2311462.000,41462,3,PG,1,100,11860
1739464953.703382,2311502.000,41480,2,PG,1,100,11865
1739464953.743382,2311542.000,41480,2,PG,1,100,11887
1739464953.783382,2311582.000,41496,3,PG,1,100,11910
1739464953.823382,2311622.000,41496,3,PG,1,100,11924
1739464953.863382,2311662.000,41496,3,PG,1,100,11953
1739464953.903382,2311702.000,41512,2,PG,1,100,11968
1739464953.943382,2311742.000,41512,2,PG,1,100,11999
1739464953.983382,2311782.000,41527,3,PG,1,100,12030
1739464954.023381,2311822.000,41527,3,PG,1,100,12049
1739464954.063381,2311862.000,41527,3,PG,1,100,12062
1739464954.103381,2311902.000,41544,2,PG,1,100,12093
1739464954.143381,2311942.000,41544,2,PG,1,100,12139
1739464954.183381,2311982.000,41561,3,PG,1,100,12149
1739464954.223381,2312022.000,41561,3,PG,1,100,12147
1739464954.263381,2312062.000,41561,3,PG,1,100,12037
1739464954.303381,2312102.000,41576,2,PG,1,100,11927
1739464954.343381,2312142.000,41576,2,PG,1,100,11888
1739464954.383381,2312182.000,41593,3,PG,1,100,11892
1739464954.423381,2312222.000,41593,3,PG,1,100,11937
1739464954.463381,2312262.000,41593,3,PG,1,100,11980
1739464954.503381,2312302.000,41612,2,PG,1,100,12037
1739464954.543380,2312342.000,41612,2,PG,1,100,12061
1739464954.583380,2312382.000,41628,3,PG,1,100,12075
1739464954.623380,2312422.000,41628,3,PG,1,100,12076
1739464954.663380,2312462.000,41628,3,PG,1,100,12114
1739464954.703380,2312502.000,41644,2,PG,1,100,12137
1739464954.743380,2312542.000,41644,2,PG,1,100,12158
1739464954.783380,2312582.000,41659,3,PG,1,100,12201
1739464954.823380,2312622.000,41659,3,PG,1,100,12222
1739464954.863380,2312662.000,41659,3,PG,1,100,12239
1739464954.903380,2312702.000,41675,3,PG,1,100,12257
1739464954.943380,2312742.000,41675,3,PG,1,100,12262
1739464954.983380,2312782.000,41675,3,PG,1,100,12291
1739464955.023380,2312822.000,41691,2,PG,1,100,12300
1739464955.063380,2312862.000,41691,2,PG,1,100,12320
1739464955.103379,2312902.000,41708,3,PG,1,100,12260
1739464955.143379,2312942.000,41708,3,PG,1,100,12137
1739464955.183379,2312982.000,41708,3,PG,1,100,12060
1739464955.223379,2313022.000,41723,2,PG,1,100,12057
1739464955.263379,2313062.000,41723,2,PG,1,100,12098
1739464955.303379,2313102.000,41739,3,PG,1,100,12151
1739464955.343379,2313142.000,41739,3,PG,1,100,12188
1739464955.383379,2313182.000,41739,3,PG,1,100,12235
1739464955.423379,2313222.000,41757,2,PG,1,100,12251
1739464955.463379,2313262.000,41757,2,PG,1,100,12255
1739464955.503379,2313302.000,41774,3,PG,1,100,12294
1739464955.543379,2313342.000,41774,3,PG,1,100,12346
1739464955.583378,2313382.000,41774,3,PG,1,100,12357
1739464955.623378,2313422.000,41788,2,PG,1,100,12395
1739464955.663378,2313462.000,41788,2,PG,1,100,12427
1739464955.703378,2313502.000,41804,3,PG,1,100,12476
1739464955.743378,2313542.000,41804,3,PG,1,100,12504
1739464955.783378,2313582.000,41804,3,PG,1,100,12513
1739464955.823378,2313622.000,41821,2,PG,1,100,12514
1739464955.863378,2313662.000,41821,2,PG,1,100,12522
1739464955.903378,2313702.000,41837,3,PG,1,100,12526
1739464955.943378,2313742.000,41837,3,PG,1,100,12514
1739464955.983378,2313782.000,41837,3,PG,1,100,12440
1739464956.023378,2313822.000,41851,2,PG,1,100,12400
1739464956.063377,2313862.000,41851,2,PG,1,100,12388
1739464956.103377,2313902.000,41872,4,PG,1,100,12410
1739464956.143377,2313942.000,41872,4,PG,1,100,12431
1739464956.183377,2313982.000,41872,4,PG,1,100,12432
1739464956.223377,2314022.000,41872,4,PG,1,100,12433
1739464956.263377,2314062.000,41888,2,PG,1,100,12409
1739464956.303377,2314102.000,41888,2,PG,1,100,12384
1739464956.347710,2314146.333,41904,3,PG,1,100,12358
1739464956.392044,2314190.667,41904,3,PG,1,100,12341
1739464956.436377,2314235.000,41904,3,PG,1,100,12348
1739464956.476377,2314275.000,41920,2,PG,1,100,12340
1739464956.516376,2314315.000,41920,2,PG,1,100,12337
1739464956.556376,2314355.000,41936,3,PG,1,100,12331
1739464956.596376,2314395.000,41936,3,PG,1,100,12318
1739464956.636376,2314435.000,41936,3,PG,1,100,12306
1739464956.676376,2314475.000,41951,2,PG,1,100,12261
1739464956.716376,2314515.000,41951,2,PG,1,100,12136
1739464956.756376,2314555.000,41969,3,PG,1,100,12027
1739464956.796376,2314595.000,41969,3,PG,1,100,11974
1739464956.836376,2314635.000,41969,3,PG,1,100,11956
1739464956.876376,2314675.000,41986,2,PG,1,100,11955
1739464956.916376,2314715.000,41986,2,PG,1,100,11969
1739464956.956376,2314755.000,42002,3,PG,1,100,11966
1739464956.996376,2314795.000,42002,3,PG,1,100,11965
1739464957.036376,2314835.000,42002,3,PG,1,100,11965
1739464957.076375,2314875.000,42018,2,PG,1,100,11948
1739464957.116375,2314915.000,42018,2,PG,1,100,11961
1739464957.156375,2314955.000,42036,3,PG,1,100,11978
1739464957.196375,2314995.000,42036,3,PG,1,100,11991
1739464957.236375,2315035.000,42036,3,PG,1,100,12007
1739464957.276375,2315075.000,42052,2,PG,1,100,12009
1739464957.316375,2315115.000,42052,2,PG,1,100,12024
1739464957.356375,2315155.000,42068,3,PG,1,100,12022
1739464957.396375,2315195.000,42068,3,PG,1,100,11986
1739464957.436375,2315235.000,42068,3,PG,1,100,11906
1739464957.476375,2315275.000,42083,3,PG,1,100,11849
1739464957.516375,2315315.000,42083,3,PG,1,100,11821
1739464957.556375,2315355.000,42083,3,PG,1,100,11815
1739464957.596375,2315395.000,42099,2,PG,1,100,11850
1739464957.636374,2315435.000,42099,2,PG,1,100,11861
1739464957.676374,2315475.000,42117,3,PG,1,100,11885
1739464957.716374,2315515.000,42117,3,PG,1,100,11878
1739464957.756374,2315555.000,42117,3,PG,1,100,11873
1739464957.796374,2315595.000,42133,2,PG,1,100,11864
1739464957.836374,2315635.000,42133,2,PG,1,100,11879
1739464957.876374,2315675.000,42148,3,PG,1,100,11915
1739464957.916374,2315715.000,42148,3,PG,1,100,11955
1739464957.956374,2315755.000,42148,3,PG,1,100,11981
1739464957.996374,2315795.000,42164,2,PG,1,100,11994
1739464958.036374,2315835.000,42164,2,PG,1,100,12002
1739464958.076374,2315875.000,42180,3,PG,1,100,12012
1739464958.116374,2315915.000,42180,3,PG,1,100,12011
1739464958.156374,2315955.000,42180,3,PG,1,100,11939
1739464958.196373,2315995.000,42198,2,PG,1,100,11847
1739464958.236373,2316035.000,42198,2,PG,1,100,11776
1739464958.276373,2316075.000,42214,3,PG,1,100,11736
1739464958.316373,2316115.000,42214,3,PG,1,100,11724
1739464958.356373,2316155.000,42214,3,PG,1,100,11722
1739464958.396373,2316195.000,42230,2,PG,1,100,11746
1739464958.436373,2316235.000,42230,2,PG,1,100,11765
1739464958.476373,2316275.000,42247,3,PG,1,100,11765
1739464958.516373,2316315.000,42247,3,PG,1,100,11768
1739464958.556373,2316355.000,42247,3,PG,1,100,11798
1739464958.596373,2316395.000,42263,2,PG,1,100,11805
1739464958.636373,2316435.000,42263,2,PG,1,100,11851
1739464958.676372,2316475.000,42280,3,PG,1,100,11880
1739464958.716372,2316515.000,42280,3,PG,1,100,11918
1739464958.756372,2316555.000,42280,3,PG,1,100,11958
1739464958.796372,2316595.000,42295,2,PG,1,100,11994
1739464958.836372,2316635.000,42295,2,PG,1,100,12014
1739464958.876372,2316675.000,42312,3,PG,1,100,12031
1739464958.916372,2316715.000,42312,3,PG,1,100,11996
1739464958.956372,2316755.000,42312,3,PG,1,100,11909
1739464958.996372,2316795.000,42328,3,PG,1,100,11867
1739464959.036372,2316835.000,42328,3,PG,1,100,11839
1739464959.076372,2316875.000,42328,3,PG,1,100,11837
1739464959.116372,2316915.000,42344,2,PG,1,100,11852
1739464959.156371,2316955.000,42344,2,PG,1,100,11878
1739464959.196371,2316995.000,42360,3,PG,1,100,11883
1739464959.236371,2317035.000,42360,3,PG,1,100,11865
1739464959.276371,2317075.000,42360,3,PG,1,100,11850
1739464959.316371,2317115.000,42376,2,PG,1,100,11854
1739464959.356371,2317155.000,42376,2,PG,1,100,11855
1739464959.396371,2317195.000,42392,3,PG,1,100,11884
1739464959.436371,2317235.000,42392,3,PG,1,100,11860
1739464959.476371,2317275.000,42392,3,PG,1,100,11848
1739464959.516371,2317315.000,42409,2,PG,1,100,11859
1739464959.556371,2317355.000,42409,2,PG,1,100,11886
1739464959.596371,2317395.000,42425,3,PG,1,100,11897
1739464959.636370,2317435.000,42425,3,PG,1,100,11917
1739464959.676370,2317475.000,42425,3,PG,1,100,11889
1739464959.716370,2317515.000,42441,2,PG,1,100,11809
1739464959.756370,2317555.000,42441,2,PG,1,100,11727
1739464959.796370,2317595.000,42458,3,PG,1,100,11692
1739464959.836370,2317635.000,42458,3,PG,1,100,11671
1739464959.876370,2317675.000,42458,3,PG,1,100,11689
1739464959.916370,2317715.000,42476,2,PG,1,100,11719
1739464959.956370,2317755.000,42476,2,PG,1,100,11734
1739464959.996370,2317795.000,42490,3,PG,1,100,11747
1739464960.036370,2317835.000,42490,3,PG,1,100,11746
1739464960.076370,2317875.000,42490,3,PG,1,100,11749
1739464960.116370,2317915.000,42506,2,PG,1,100,11759
1739464960.156369,2317955.000,42506,2,PG,1,100,11769
1739464960.196369,2317995.000,42524,3,PG,1,100,11795
1739464960.236369,2318035.000,42524,3,PG,1,100,11798
1739464960.276369,2318075.000,42524,3,PG,1,100,11835
1739464960.316369,2318115.000,42540,3,PG,1,100,11840
1739464960.356369,2318155.000,42540,3,PG,1,100,11824
1739464960.396369,2318195.000,42540,3,PG,1,100,11744
1739464960.436369,2318235.000,42554,2,PG,1,100,11682
1739464960.476369,2318275.000,42554,2,PG,1,100,11657
1739464960.516369,2318315.000,42571,3,PG,1,100,11660
1739464960.556369,2318355.000,42571,3,PG,1,100,11690
1739464960.596369,2318395.000,42571,3,PG,1,100,11731
1739464960.636369,2318435.000,42589,2,PG,1,100,11738
1739464960.676368,2318475.000,42589,2,PG,1,100,11736
1739464960.716368,2318515.000,42605,3,PG,1,100,11731
1739464960.756368,2318555.000,42605,3,PG,1,100,11732
1739464960.796368,2318595.000,42605,3,PG,1,100,11752
1739464960.836368,2318635.000,42621,2,PG,1,100,11781
1739464960.876368,2318675.000,42621,2,PG,1,100,11806
1739464960.916035,2318714.667,42636,3,PG,1,100,11810
1739464960.955701,2318754.333,42636,3,PG,1,100,11836
1739464960.995368,2318794.000,42636,3,PG,1,100,11833
1739464961.035868,2318834.500,42652,2,PG,1,100,11760
1739464961.076368,2318875.000,42652,2,PG,1,100,11672
1739464961.116034,2318914.667,42668,3,PG,1,100,11623
1739464961.155701,2318954.333,42668,3,PG,1,100,11619
1739464961.195368,2318994.000,42668,3,PG,1,100,11632
1739464961.235368,2319034.000,42690,3,PG,1,100,11663
1739464961.275367,2319074.000,42690,3,PG,1,100,11685
1739464961.315367,2319114.000,42690,3,PG,1,100,11702
1739464961.355367,2319154.000,42706,3,PG,1,100,11707
1739464961.395367,2319194.000,42706,3,PG,1,100,11698
1739464961.435367,2319234.000,42706,3,PG,1,100,11709
1739464961.475867,2319274.500,42721,2,PG,1,100,11724
1739464961.516367,2319315.000,42721,2,PG,1,100,11760
1739464961.556033,2319354.667,42737,3,PG,1,100,11786
1739464961.595700,2319394.333,42737,3,PG,1,100,11806
1739464961.635367,2319434.000,42737,3,PG,1,100,11788
1739464961.675367,2319474.000,42753,2,PG,1,100,11701
1739464961.715367,2319514.000,42753,2,PG,1,100,11615
1739464961.755366,2319554.000,42769,3,PG,1,100,11578
1739464961.795366,2319594.000,42769,3,PG,1,100,11571
1739464961.835366,2319634.000,42769,3,PG,1,100,11581
1739464961.875366,2319674.000,42786,3,PG,1,100,11609
1739464961.915366,2319714.000,42786,3,PG,1,100,11634
1739464961.955366,2319754.000,42786,3,PG,1,100,11658
1739464961.995366,2319794.000,42804,2,PG,1,100,11655
1739464962.035366,2319834.000,42804,2,PG,1,100,11651
1739464962.075366,2319874.000,42822,3,PG,1,100,11661
1739464962.115366,2319914.000,42822,3,PG,1,100,11679
1739464962.155366,2319954.000,42822,3,PG,1,100,11701
1739464962.195366,2319994.000,42839,2,PG,1,100,11716
1739464962.235365,2320034.000,42839,2,PG,1,100,11735
1739464962.275699,2320074.333,42856,3,PG,1,100,11770
1739464962.316032,2320114.667,42856,3,PG,1,100,11782
1739464962.356365,2320155.000,42856,3,PG,1,100,11711
1739464962.395865,2320194.500,42872,2,PG,1,100,11606
1739464962.435365,2320234.000,42872,2,PG,1,100,11545
1739464962.475365,2320274.000,42889,3,PG,1,100,11539
1739464962.515365,2320314.000,42889,3,PG,1,100,11538
1739464962.555365,2320354.000,42889,3,PG,1,100,11552
1739464962.595365,2320394.000,42905,2,PG,1,100,11574
1739464962.635365,2320434.000,42905,2,PG,1,100,11579
1739464962.675365,2320474.000,42921,3,PG,1,100,11583
1739464962.715364,2320514.000,42921,3,PG,1,100,11601
1739464962.755364,2320554.000,42921,3,PG,1,100,11602
1739464962.795364,2320594.000,42937,2,PG,1,100,11614
1739464962.835364,2320634.000,42937,2,PG,1,100,11617
1739464962.875364,2320674.000,42954,3,PG,1,100,11639
1739464962.915364,2320714.000,42954,3,PG,1,100,11677
1739464962.955364,2320754.000,42954,3,PG,1,100,11691
1739464962.995364,2320794.000,42970,2,PG,1,100,11726
1739464963.035364,2320834.000,42970,2,PG,1,100,11737
1739464963.075364,2320874.000,42985,3,PG,1,100,11760
1739464963.115364,2320914.000,42985,3,PG,1,100,11769
1739464963.155364,2320954.000,42985,3,PG,1,100,11788
1739464963.195364,2320994.000,43001,2,PG,1,100,11803
1739464963.235363,2321034.000,43001,2,PG,1,100,11742
1739464963.275363,2321074.000,43020,3,PG,1,100,11633
1739464963.315363,2321114.000,43020,3,PG,1,100,11547
1739464963.355363,2321154.000,43020,3,PG,1,100,11527
1739464963.395363,2321194.000,43036,3,PG,1,100,11524
1739464963.435363,2321234.000,43036,3,PG,1,100,11543
1739464963.475363,2321274.000,43036,3,PG,1,100,11573
1739464963.515363,2321314.000,43053,2,PG,1,100,11578
1739464963.555363,2321354.000,43053,2,PG,1,100,11589
1739464963.595363,2321394.000,43069,3,PG,1,100,11578
1739464963.635363,2321434.000,43069,3,PG,1,100,11594
1739464963.675363,2321474.000,43069,3,PG,1,100,11622
1739464963.715363,2321514.000,43085,2,PG,1,100,11638
1739464963.755363,2321554.000,43085,2,PG,1,100,11664
1739464963.795362,2321594.000,43102,3,PG,1,100,11668
1739464963.835362,2321634.000,43102,3,PG,1,100,11702
1739464963.875362,2321674.000,43102,3,PG,1,100,11744
1739464963.915362,2321714.000,43118,2,PG,1,100,11799
1739464963.955362,2321754.000,43118,2,PG,1,100,11847
1739464963.995362,2321794.000,43132,3,PG,1,100,11883
1739464964.035362,2321834.000,43132,3,PG,1,100,11915
1739464964.075362,2321874.000,43132,3,PG,1,100,11938
1739464964.115362,2321914.000,43148,2,PG,1,100,11953
1739464964.155362,2321954.000,43148,2,PG,1,100,11882
1739464964.200028,2321998.667,43165,3,PG,1,100,11784
1739464964.244695,2322043.333,43165,3,PG,1,100,11733
1739464964.289361,2322088.000,43165,3,PG,1,100,11711
1739464964.329361,2322128.000,43182,2,PG,1,100,11732
1739464964.369361,2322168.000,43182,2,PG,1,100,11769
1739464964.409028,2322207.667,43198,3,PG,1,100,11816
1739464964.448694,2322247.333,43198,3,PG,1,100,11848
1739464964.488361,2322287.000,43198,3,PG,1,100,11846
1739464964.528861,2322327.500,43215,2,PG,1,100,11851
1739464964.569361,2322368.000,43215,2,PG,1,100,11864
1739464964.609028,2322407.667,43231,3,PG,1,100,11884
1739464964.648694,2322447.333,43231,3,PG,1,100,11912
1739464964.688361,2322487.000,43231,3,PG,1,100,11935
1739464964.728361,2322527.000,43247,2,PG,1,100,11971
1739464964.768361,2322567.000,43247,2,PG,1,100,11993
1739464964.808361,2322607.000,43262,3,PG,1,100,12008
1739464964.848360,2322647.000,43262,3,PG,1,100,12017
1739464964.888360,2322687.000,43262,3,PG,1,100,12038
1739464964.928360,2322727.000,43278,2,PG,1,100,12055
1739464964.968360,2322767.000,43278,2,PG,1,100,12082
1739464965.008360,2322807.000,43294,3,PG,1,100,12111
1739464965.048360,2322847.000,43294,3,PG,1,100,12088
1739464965.088360,2322887.000,43294,3,PG,1,100,12001
1739464965.128360,2322927.000,43310,2,PG,1,100,11883
1739464965.168360,2322967.000,43310,2,PG,1,100,11827
1739464965.208360,2323007.000,43325,3,PG,1,100,11834
1739464965.248360,2323047.000,43325,3,PG,1,100,11863
1739464965.288360,2323087.000,43325,3,PG,1,100,11908
1739464965.328860,2323127.500,43342,2,PG,1,100,11938
1739464965.369359,2323168.000,43342,2,PG,1,100,11965
1739464965.409026,2323207.667,43360,3,PG,1,100,11985
1739464965.448693,2323247.333,43360,3,PG,1,100,11986
1739464965.488359,2323287.000,43360,3,PG,1,100,11993
1739464965.528359,2323327.000,43377,2,PG,1,100,12003
1739464965.568359,2323367.000,43377,2,PG,1,100,12032
1739464965.608359,2323407.000,43392,3,PG,1,100,12046
1739464965.648359,2323447.000,43392,3,PG,1,100,12065
1739464965.688359,2323487.000,43392,3,PG,1,100,12081
1739464965.728359,2323527.000,43407,3,PG,1,100,12111
1739464965.768359,2323567.000,43407,3,PG,1,100,12130
1739464965.808358,2323607.000,43407,3,PG,1,100,12141
1739464965.848358,2323647.000,43424,2,PG,1,100,12150
1739464965.888358,2323687.000,43424,2,PG,1,100,12163
1739464965.928358,2323727.000,43440,3,PG,1,100,12162
1739464965.968358,2323767.000,43440,3,PG,1,100,12077
1739464966.008358,2323807.000,43440,3,PG,1,100,11960
1739464966.048358,2323847.000,43456,2,PG,1,100,11908
1739464966.088358,2323887.000,43456,2,PG,1,100,11909
1739464966.128358,2323927.000,43471,3,PG,1,100,11943
1739464966.168358,2323967.000,43471,3,PG,1,100,11980
1739464966.208358,2324007.000,43471,3,PG,1,100,12014
1739464966.248358,2324047.000,43489,2,PG,1,100,12042
1739464966.288357,2324087.000,43489,2,PG,1,100,12043
1739464966.328357,2324127.000,43509,4,PG,1,100,12046
1739464966.368357,2324167.000,43509,4,PG,1,100,12055
1739464966.408357,2324207.000,43509,4,PG,1,100,12082
1739464966.448357,2324247.000,43509,4,PG,1,100,12095
1739464966.488357,2324287.000,43526,2,PG,1,100,12117
1739464966.528357,2324327.000,43526,2,PG,1,100,12135
1739464966.568357,2324367.000,43542,3,PG,1,100,12155
1739464966.608357,2324407.000,43542,3,PG,1,100,12154
1739464966.648357,2324447.000,43542,3,PG,1,100,12185
1739464966.688357,2324487.000,43556,2,PG,1,100,12211
1739464966.728357,2324527.000,43556,2,PG,1,100,12233
1739464966.768357,2324567.000,43572,3,PG,1,100,12234
1739464966.808357,2324607.000,43572,3,PG,1,100,12211
1739464966.848356,2324647.000,43572,3,PG,1,100,12104
1739464966.888356,2324687.000,43589,2,PG,1,100,12010
1739464966.928356,2324727.000,43589,2,PG,1,100,11966
1739464966.968356,2324767.000,43605,3,PG,1,100,11983
1739464967.008356,2324807.000,43605,3,PG,1,100,12002
1739464967.048356,2324847.000,43605,3,PG,1,100,12047
1739464967.088356,2324887.000,43622,3,PG,1,100,12065
1739464967.128356,2324927.000,43622,3,PG,1,100,12084
1739464967.168356,2324967.000,43622,3,PG,1,100,12102
1739464967.208356,2325007.000,43638,2,PG,1,100,12107
1739464967.248356,2325047.000,43638,2,PG,1,100,12116
1739464967.288356,2325087.000,43654,3,PG,1,100,12124
1739464967.328356,2325127.000,43654,3,PG,1,100,12145
1739464967.368356,2325167.000,43654,3,PG,1,100,12175
1739464967.408355,2325207.000,43671,2,PG,1,100,12193
1739464967.448355,2325247.000,43671,2,PG,1,100,12212
1739464967.488355,2325287.000,43687,3,PG,1,100,12223
1739464967.528355,2325327.000,43687,3,PG,1,100,12237
1739464967.568355,2325367.000,43687,3,PG,1,100,12245
1739464967.608355,2325407.000,43702,2,PG,1,100,12263
1739464967.648355,2325447.000,43702,2,PG,1,100,12277
1739464967.688355,2325487.000,43718,3,PG,1,100,12203
1739464967.728355,2325527.000,43718,3,PG,1,100,12083
1739464967.768355,2325567.000,43718,3,PG,1,100,12026
1739464967.808355,2325607.000,43735,2,PG,1,100,12014
1739464967.848355,2325647.000,43735,2,PG,1,100,12061
1739464967.888355,2325687.000,43751,3,PG,1,100,12084
1739464967.928355,2325727.000,43751,3,PG,1,100,12135
1739464967.968354,2325767.000,43751,3,PG,1,100,12144
1739464968.008354,2325807.000,43767,2,PG,1,100,12148
1739464968.048354,2325847.000,43767,2,PG,1,100,12155
1739464968.088354,2325887.000,43783,3,PG,1,100,12171
1739464968.128354,2325927.000,43783,3,PG,1,100,12192
1739464968.168354,2325967.000,43783,3,PG,1,100,12198
1739464968.208354,2326007.000,43802,2,PG,1,100,12240
1739464968.248354,2326047.000,43802,2,PG,1,100,12257
1739464968.288354,2326087.000,43818,3,PG,1,100,12266
1739464968.328354,2326127.000,43818,3,PG,1,100,12286
1739464968.368354,2326167.000,43818,3,PG,1,100,12306
1739464968.408354,2326207.000,43833,3,PG,1,100,12311
1739464968.448354,2326247.000,43833,3,PG,1,100,12289
1739464968.488353,2326287.000,43833,3,PG,1,100,12213
1739464968.528353,2326327.000,43850,2,PG,1,100,12111
1739464968.568353,2326367.000,43850,2,PG,1,100,12078
1739464968.608353,2326407.000,43866,3,PG,1,100,12094
1739464968.648353,2326447.000,43866,3,PG,1,100,12130
1739464968.688353,2326487.000,43866,3,PG,1,100,12152
1739464968.728353,2326527.000,43882,2,PG,1,100,12165
1739464968.768353,2326567.000,43882,2,PG,1,100,12181
1739464968.808353,2326607.000,43899,3,PG,1,100,12205
1739464968.848353,2326647.000,43899,3,PG,1,100,12215
1739464968.888353,2326687.000,43899,3,PG,1,100,12225
1739464968.928353,2326727.000,43915,2,PG,1,100,12234
1739464968.968352,2326767.000,43915,2,PG,1,100,12253
1739464969.008352,2326807.000,43931,3,PG,1,100,12265
1739464969.048352,2326847.000,43931,3,PG,1,100,12274
1739464969.088352,2326887.000,43931,3,PG,1,100,12297
1739464969.128352,2326927.000,43947,2,PG,1,100,12317
1739464969.168352,2326967.000,43947,2,PG,1,100,12302
1739464969.208352,2327007.000,43962,3,PG,1,100,12196
1739464969.248352,2327047.000,43962,3,PG,1,100,12085
1739464969.288352,2327087.000,43962,3,PG,1,100,12054
1739464969.328352,2327127.000,43978,2,PG,1,100,12073
1739464969.368352,2327167.000,43978,2,PG,1,100,12108
1739464969.408352,2327207.000,43995,3,PG,1,100,12134
1739464969.448351,2327247.000,43995,3,PG,1,100,12149
1739464969.488351,2327287.000,43995,3,PG,1,100,12157
1739464969.528351,2327327.000,44014,2,PG,1,100,12164
1739464969.568351,2327367.000,44014,2,PG,1,100,12177
1739464969.608351,2327407.000,44029,3,PG,1,100,12186
1739464969.648351,2327447.000,44029,3,PG,1,100,12201
1739464969.688351,2327487.000,44029,3,PG,1,100,12234
1739464969.728351,2327527.000,44044,3,PG,1,100,12251
1739464969.768351,2327567.000,44044,3,PG,1,100,12271
1739464969.808351,2327607.000,44044,3,PG,1,100,12300
1739464969.848351,2327647.000,44061,2,PG,1,100,12287
1739464969.888351,2327687.000,44061,2,PG,1,100,12249
1739464969.928350,2327727.000,44077,3,PG,1,100,12103
1739464969.968350,2327767.000,44077,3,PG,1,100,12032
1739464970.008350,2327807.000,44077,3,PG,1,100,12022
1739464970.048350,2327847.000,44093,2,PG,1,100,12021
1739464970.088350,2327887.000,44093,2,PG,1,100,12068
1739464970.128350,2327927.000,44108,3,PG,1,100,12085
1739464970.168350,2327967.000,44108,3,PG,1,100,12119
1739464970.208350,2328007.000,44108,3,PG,1,100,12129
1739464970.248350,2328047.000,44126,2,PG,1,100,12135
1739464970.288350,2328087.000,44126,2,PG,1,100,12142
1739464970.328350,2328127.000,44142,3,PG,1,100,12148
1739464970.368350,2328167.000,44142,3,PG,1,100,12167
1739464970.408350,2328207.000,44142,3,PG,1,100,12179
1739464970.448349,2328247.000,44159,2,PG,1,100,12210
1739464970.488349,2328287.000,44159,2,PG,1,100,12233
1739464970.528349,2328327.000,44174,3,PG,1,100,12249
1739464970.568349,2328367.000,44174,3,PG,1,100,12260
1739464970.608349,2328407.000,44174,3,PG,1,100,12256
1739464970.648349,2328447.000,44190,2,PG,1,100,12209
1739464970.688349,2328487.000,44190,2,PG,1,100,12079
1739464970.728349,2328527.000,44206,3,PG,1,100,12007
1739464970.768349,2328567.000,44206,3,PG,1,100,11991
1739464970.808349,2328607.000,44206,3,PG,1,100,12005
1739464970.848349,2328647.000,44223,2,PG,1,100,12038
1739464970.888349,2328687.000,44223,2,PG,1,100,12057
1739464970.928349,2328727.000,44239,3,PG,1,100,12088
1739464970.968349,2328767.000,44239,3,PG,1,100,12097
1739464971.008348,2328807.000,44239,3,PG,1,100,12099
1739464971.048348,2328847.000,44255,3,PG,1,100,12115
1739464971.088348,2328887.000,44255,3,PG,1,100,12141
1739464971.128348,2328927.000,44255,3,PG,1,100,12147
1739464971.168348,2328967.000,44272,2,PG,1,100,12181
1739464971.208348,2329007.000,44272,2,PG,1,100,12192
1739464971.248348,2329047.000,44288,3,PG,1,100,12217
1739464971.288348,2329087.000,44288,3,PG,1,100,12226
1739464971.328348,2329127.000,44288,3,PG,1,100,12241
1739464971.368348,2329167.000,44302,2,PG,1,100,12253
1739464971.408348,2329207.000,44302,2,PG,1,100,12274
1739464971.448348,2329247.000,44323,4,PG,1,100,12277
1739464971.488348,2329287.000,44323,4,PG,1,100,12187
1739464971.528347,2329327.000,44323,4,PG,1,100,12062
1739464971.568347,2329367.000,44323,4,PG,1,100,11992
1739464971.608347,2329407.000,44339,2,PG,1,100,12005
1739464971.648347,2329447.000,44339,2,PG,1,100,12004
1739464971.688347,2329487.000,44355,3,PG,1,100,12055
1739464971.728347,2329527.000,44355,3,PG,1,100,12086
1739464971.768347,2329567.000,44355,3,PG,1,100,12091
1739464971.808347,2329607.000,44374,2,PG,1,100,12090
1739464971.848347,2329647.000,44374,2,PG,1,100,12093
1739464971.888347,2329687.000,44390,3,PG,1,100,12103
1739464971.928347,2329727.000,44390,3,PG,1,100,12127
1739464971.968347,2329767.000,44390,3,PG,1,100,12149
1739464972.014847,2329813.500,44404,2,PG,1,100,12175
1739464972.061346,2329860.000,44404,2,PG,1,100,12178
1739464972.101346,2329900.000,44420,2,PG,1,100,12213
1739464972.141346,2329940.000,44420,2,PG,1,100,12220
1739464972.181346,2329980.000,44437,3,PG,1,100,12246
1739464972.221346,2330020.000,44437,3,PG,1,100,12266
1739464972.261346,2330060.000,44437,3,PG,1,100,12280
1739464972.301346,2330100.000,44453,2,PG,1,100,12283
1739464972.341346,2330140.000,44453,2,PG,1,100,12233
1739464972.381346,2330180.000,44467,3,PG,1,100,12101
1739464972.421346,2330220.000,44467,3,PG,1,100,12020
1739464972.461346,2330260.000,44467,3,PG,1,100,12004
1739464972.501346,2330300.000,44485,3,PG,1,100,12026
1739464972.541345,2330340.000,44485,3,PG,1,100,12051
1739464972.581345,2330380.000,44485,3,PG,1,100,12081
1739464972.621345,2330420.000,44501,2,PG,1,100,12103
1739464972.661345,2330460.000,44501,2,PG,1,100,12107
1739464972.701345,2330500.000,44519,3,PG,1,100,12128
1739464972.741345,2330540.000,44519,3,PG,1,100,12146
1739464972.781345,2330580.000,44519,3,PG,1,100,12149
1739464972.821345,2330620.000,44534,2,PG,1,100,12166
1739464972.861345,2330660.000,44534,2,PG,1,100,12176
1739464972.901345,2330700.000,44550,3,PG,1,100,12205
1739464972.941345,2330740.000,44550,3,PG,1,100,12238
1739464972.981345,2330780.000,44550,3,PG,1,100,12244
1739464973.021344,2330820.000,44566,2,PG,1,100,12250
1739464973.061344,2330860.000,44566,2,PG,1,100,12276
1739464973.101344,2330900.000,44582,3,PG,1,100,12306
1739464973.141344,2330940.000,44582,3,PG,1,100,12324
1739464973.181344,2330980.000,44582,3,PG,1,100,12314
1739464973.221344,2331020.000,44599,2,PG,1,100,12227
1739464973.261344,2331060.000,44599,2,PG,1,100,12108
1739464973.301344,2331100.000,44615,3,PG,1,100,12057
1739464973.341344,2331140.000,44615,3,PG,1,100,12070
1739464973.381344,2331180.000,44615,3,PG,1,100,12106
1739464973.421344,2331220.000,44631,2,PG,1,100,12139
1739464973.461344,2331260.000,44631,2,PG,1,100,12177
1739464973.501343,2331300.000,44651,3,PG,1,100,12179
1739464973.541343,2331340.000,44651,3,PG,1,100,12190
1739464973.581343,2331380.000,44651,3,PG,1,100,12197
1739464973.621343,2331420.000,44665,2,PG,1,100,12206
1739464973.661343,2331460.000,44665,2,PG,1,100,12224
1739464973.701343,2331500.000,44681,3,PG,1,100,12239
1739464973.741343,2331540.000,44681,3,PG,1,100,12254
1739464973.781343,2331580.000,44681,3,PG,1,100,12268
1739464973.821343,2331620.000,44698,3,PG,1,100,12274
1739464973.861343,2331660.000,44698,3,PG,1,100,12301
1739464973.901343,2331700.000,44698,3,PG,1,100,12318
1739464973.941343,2331740.000,44714,2,PG,1,100,12313
1739464973.981343,2331780.000,44714,2,PG,1,100,12219
1739464974.021343,2331820.000,44729,3,PG,1,100,12102
1739464974.061342,2331860.000,44729,3,PG,1,100,12053
1739464974.101342,2331900.000,44729,3,PG,1,100,12073
1739464974.141342,2331940.000,44745,2,PG,1,100,12101
1739464974.181342,2331980.000,44745,2,PG,1,100,12122
1739464974.221342,2332020.000,44761,3,PG,1,100,12143
1739464974.261342,2332060.000,44761,3,PG,1,100,12151
1739464974.301342,2332100.000,44761,3,PG,1,100,12160
1739464974.341342,2332140.000,44779,2,PG,1,100,12170
1739464974.381342,2332180.000,44779,2,PG,1,100,12175
1739464974.421342,2332220.000,44795,3,PG,1,100,12196
1739464974.461342,2332260.000,44795,3,PG,1,100,12231
1739464974.501342,2332300.000,44795,3,PG,1,100,12243
1739464974.541342,2332340.000,44811,2,PG,1,100,12266
1739464974.581342,2332380.000,44811,2,PG,1,100,12276
1739464974.621341,2332420.000,44827,3,PG,1,100,12289
1739464974.661341,2332460.000,44827,3,PG,1,100,12298
1739464974.701341,2332500.000,44827,3,PG,1,100,12216
1739464974.741341,2332540.000,44843,2,PG,1,100,12083
1739464974.781341,2332580.000,44843,2,PG,1,100,12012
1739464974.821341,2332620.000,44860,3,PG,1,100,12013
1739464974.861341,2332660.000,44860,3,PG,1,100,12025
1739464974.901341,2332700.000,44860,3,PG,1,100,12031
1739464974.941341,2332740.000,44874,2,PG,1,100,12039
1739464974.981341,2332780.000,44874,2,PG,1,100,12057
1739464975.021341,2332820.000,44890,3,PG,1,100,12068
1739464975.061341,2332860.000,44890,3,PG,1,100,12085
1739464975.101341,2332900.000,44890,3,PG,1,100,12090
1739464975.141340,2332940.000,44909,3,PG,1,100,12097
1739464975.181340,2332980.000,44909,3,PG,1,100,12116
1739464975.221340,2333020.000,44909,3,PG,1,100,12140
1739464975.261340,2333060.000,44925,2,PG,1,100,12166
1739464975.301340,2333100.000,44925,2,PG,1,100,12177
1739464975.341340,2333140.000,44939,3,PG,1,100,12209
1739464975.381340,2333180.000,44939,3,PG,1,100,12222
1739464975.421340,2333220.000,44939,3,PG,1,100,12225
1739464975.461340,2333260.000,44955,2,PG,1,100,12140
1739464975.501340,2333300.000,44955,2,PG,1,100,12029
1739464975.541340,2333340.000,44973,3,PG,1,100,11987
1739464975.581340,2333380.000,44973,3,PG,1,100,11990
1739464975.621340,2333420.000,44973,3,PG,1,100,11998
1739464975.661339,2333460.000,44989,2,PG,1,100,12021
1739464975.701339,2333500.000,44989,2,PG,1,100,12043
1739464975.741339,2333540.000,45007,3,PG,1,100,12067
1739464975.781339,2333580.000,45007,3,PG,1,100,12071
1739464975.821339,2333620.000,45007,3,PG,1,100,12066
1739464975.861339,2333660.000,45024,2,PG,1,100,12109
1739464975.901339,2333700.000,45024,2,PG,1,100,12132
1739464975.941339,2333740.000,45040,3,PG,1,100,12143
1739464975.981339,2333780.000,45040,3,PG,1,100,12148
1739464976.021339,2333820.000,45040,3,PG,1,100,12178
1739464976.061339,2333860.000,45056,2,PG,1,100,12204
1739464976.101339,2333900.000,45056,2,PG,1,100,12209
1739464976.141338,2333940.000,45072,3,PG,1,100,12227
1739464976.181338,2333980.000,45072,3,PG,1,100,12231
1739464976.221338,2334020.000,45072,3,PG,1,100,12247
1739464976.261338,2334060.000,45087,2,PG,1,100,12228
1739464976.301338,2334100.000,45087,2,PG,1,100,12121
1739464976.341338,2334140.000,45103,3,PG,1,100,12014
1739464976.381338,2334180.000,45103,3,PG,1,100,11980
1739464976.421338,2334220.000,45103,3,PG,1,100,11985
1739464976.461338,2334260.000,45120,3,PG,1,100,12019
1739464976.501338,2334300.000,45120,3,PG,1,100,12040
1739464976.541338,2334340.000,45120,3,PG,1,100,12082
1739464976.581338,2334380.000,45142,3,PG,1,100,12097
1739464976.621337,2334420.000,45142,3,PG,1,100,12097
1739464976.661337,2334460.000,45142,3,PG,1,100,12110
1739464976.701337,2334500.000,45158,3,PG,1,100,12120
1739464976.741337,2334540.000,45158,3,PG,1,100,12148
1739464976.781337,2334580.000,45158,3,PG,1,100,12158
1739464976.821337,2334620.000,45173,2,PG,1,100,12182
1739464976.861337,2334660.000,45173,2,PG,1,100,12205
1739464976.901337,2334700.000,45191,3,PG,1,100,12223
1739464976.941337,2334740.000,45191,3,PG,1,100,12247
1739464976.981337,2334780.000,45191,3,PG,1,100,12264
1739464977.021337,2334820.000,45207,2,PG,1,100,12283
1739464977.061337,2334860.000,45207,2,PG,1,100,12290
1739464977.101336,2334900.000,45223,3,PG,1,100,12308
1739464977.141336,2334940.000,45223,3,PG,1,100,12247
1739464977.181336,2334980.000,45223,3,PG,1,100,12115
1739464977.220836,2335019.500,45238,2,PG,1,100,12040
1739464977.260336,2335059.000,45238,2,PG,1,100,12051
1739464977.300669,2335099.333,45254,3,PG,1,100,12071
1739464977.341003,2335139.667,45254,3,PG,1,100,12121
1739464977.381336,2335180.000,45254,3,PG,1,100,12146
1739464977.420836,2335219.500,45270,2,PG,1,100,12160
1739464977.460336,2335259.000,45270,2,PG,1,100,12175
1739464977.500336,2335299.000,45289,3,PG,1,100,12184
1739464977.540336,2335339.000,45289,3,PG,1,100,12190
1739464977.580336,2335379.000,45289,3,PG,1,100,12210
1739464977.620669,2335419.333,45305,3,PG,1,100,12222
1739464977.661002,2335459.667,45305,3,PG,1,100,12234
1739464977.701335,2335500.000,45305,3,PG,1,100,12255
1739464977.740835,2335539.500,45320,2,PG,1,100,12273
1739464977.780335,2335579.000,45320,2,PG,1,100,12290
1739464977.820335,2335619.000,45337,3,PG,1,100,12306
1739464977.860335,2335659.000,45337,3,PG,1,100,12312
1739464977.900335,2335699.000,45337,3,PG,1,100,12281
1739464977.940835,2335739.500,45353,2,PG,1,100,12200
1739464977.981335,2335780.000,45353,2,PG,1,100,12104
1739464978.021002,2335819.667,45369,3,PG,1,100,12084
1739464978.060668,2335859.333,45369,3,PG,1,100,12091
1739464978.100335,2335899.000,45369,3,PG,1,100,12130
1739464978.140835,2335939.500,45384,2,PG,1,100,12166
1739464978.181334,2335980.000,45384,2,PG,1,100,12185
1739464978.221001,2336019.667,45404,3,PG,1,100,12194
1739464978.260668,2336059.333,45404,3,PG,1,100,12208
1739464978.300334,2336099.000,45404,3,PG,1,100,12222
1739464978.340334,2336139.000,45420,3,PG,1,100,12228
1739464978.380334,2336179.000,45420,3,PG,1,100,12249
1739464978.420334,2336219.000,45420,3,PG,1,100,12272
1739464978.460334,2336259.000,45437,3,PG,1,100,12294
1739464978.500334,2336299.000,45437,3,PG,1,100,12307
1739464978.540334,2336339.000,45437,3,PG,1,100,12321
1739464978.580334,2336379.000,45453,2,PG,1,100,12303
1739464978.620334,2336419.000,45453,2,PG,1,100,12213
1739464978.660334,2336459.000,45468,3,PG,1,100,12093
1739464978.700334,2336499.000,45468,3,PG,1,100,12054
1739464978.740333,2336539.000,45468,3,PG,1,100,12056
1739464978.780333,2336579.000,45484,2,PG,1,100,12108
1739464978.820333,2336619.000,45484,2,PG,1,100,12153
1739464978.860333,2336659.000,45503,3,PG,1,100,12144
1739464978.900333,2336699.000,45503,3,PG,1,100,12172
1739464978.940333,2336739.000,45503,3,PG,1,100,12173
1739464978.980333,2336779.000,45519,2,PG,1,100,12198
1739464979.020333,2336819.000,45519,2,PG,1,100,12198
1739464979.060333,2336859.000,45533,3,PG,1,100,12220
1739464979.100333,2336899.000,45533,3,PG,1,100,12233
1739464979.140333,2336939.000,45533,3,PG,1,100,12259
1739464979.180333,2336979.000,45550,2,PG,1,100,12274
1739464979.220332,2337019.000,45550,2,PG,1,100,12284
1739464979.260332,2337059.000,45566,3,PG,1,100,12233
1739464979.300332,2337099.000,45566,3,PG,1,100,12107
1739464979.340332,2337139.000,45566,3,PG,1,100,12058
1739464979.380332,2337179.000,45582,3,PG,1,100,12046
1739464979.420332,2337219.000,45582,3,PG,1,100,12075
1739464979.460332,2337259.000,45582,3,PG,1,100,12118
1739464979.500332,2337299.000,45597,2,PG,1,100,12144
1739464979.540332,2337339.000,45597,2,PG,1,100,12161
1739464979.580332,2337379.000,45615,3,PG,1,100,12168
1739464979.620332,2337419.000,45615,3,PG,1,100,12163
1739464979.660332,2337459.000,45615,3,PG,1,100,12189
1739464979.707331,2337506.000,45632,2,PG,1,100,12212
1739464979.754331,2337553.000,45632,2,PG,1,100,12229
1739464979.794331,2337593.000,45648,2,PG,1,100,12233
1739464979.834331,2337633.000,45648,2,PG,1,100,12262
1739464979.874331,2337673.000,45664,3,PG,1,100,12255
1739464979.914331,2337713.000,45664,3,PG,1,100,12182
1739464979.954331,2337753.000,45664,3,PG,1,100,12054
1739464979.994331,2337793.000,45679,2,PG,1,100,12014
1739464980.034331,2337833.000,45679,2,PG,1,100,12024
1739464980.074331,2337873.000,45695,3,PG,1,100,12031
1739464980.114331,2337913.000,45695,3,PG,1,100,12063
1739464980.154331,2337953.000,45695,3,PG,1,100,12103
1739464980.194331,2337993.000,45714,2,PG,1,100,12125
1739464980.234330,2338033.000,45714,2,PG,1,100,12132
1739464980.274330,2338073.000,45729,3,PG,1,100,12140
1739464980.314330,2338113.000,45729,3,PG,1,100,12138
1739464980.354330,2338153.000,45729,3,PG,1,100,12164
1739464980.394330,2338193.000,45744,3,PG,1,100,12197
1739464980.434330,2338233.000,45744,3,PG,1,100,12222
1739464980.474330,2338273.000,45744,3,PG,1,100,12245
1739464980.514330,2338313.000,45761,2,PG,1,100,12254
1739464980.554330,2338353.000,45761,2,PG,1,100,12218
1739464980.594330,2338393.000,45777,3,PG,1,100,12087
1739464980.634330,2338433.000,45777,3,PG,1,100,11990
1739464980.674330,2338473.000,45777,3,PG,1,100,11965
1739464980.713830,2338512.500,45794,2,PG,1,100,11993
1739464980.753330,2338552.000,45794,2,PG,1,100,12030
1739464980.793663,2338592.333,45809,3,PG,1,100,12050
1739464980.833996,2338632.667,45809,3,PG,1,100,12081
1739464980.874329,2338673.000,45809,3,PG,1,100,12085
1739464980.914329,2338713.000,45827,2,PG,1,100,12086
1739464980.954329,2338753.000,45827,2,PG,1,100,12105
1739464980.994329,2338793.000,45843,3,PG,1,100,12115
1739464981.034329,2338833.000,45843,3,PG,1,100,12130
1739464981.074329,2338873.000,45843,3,PG,1,100,12143
1739464981.113829,2338912.500,45859,2,PG,1,100,12173
1739464981.153329,2338952.000,45859,2,PG,1,100,12193
1739464981.193329,2338992.000,45874,3,PG,1,100,12218
1739464981.233329,2339032.000,45874,3,PG,1,100,12235
1739464981.273329,2339072.000,45874,3,PG,1,100,12229
1739464981.313329,2339112.000,45890,2,PG,1,100,12250
1739464981.353328,2339152.000,45890,2,PG,1,100,12273
1739464981.393661,2339192.333,45906,3,PG,1,100,12287
1739464981.433995,2339232.667,45906,3,PG,1,100,12257
1739464981.474328,2339273.000,45906,3,PG,1,100,12112
1739464981.514328,2339313.000,45923,2,PG,1,100,11993
1739464981.554328,2339353.000,45923,2,PG,1,100,11958
1739464981.594161,2339392.833,45945,6,PG,1,100,11959
1739464981.633994,2339432.667,45945,6,PG,1,100,11978
1739464981.673828,2339472.500,45945,6,PG,1,100,12009
1739464981.713661,2339512.333,45945,6,PG,1,100,12053
1739464981.753494,2339552.167,45945,6,PG,1,100,12056
1739464981.793328,2339592.000,45945,6,PG,1,100,12050
1739464981.833327,2339632.000,45962,2,PG,1,100,12044
1739464981.873327,2339672.000,45962,2,PG,1,100,12074
1739464981.913327,2339712.000,45978,3,PG,1,100,12097
1739464981.953327,2339752.000,45978,3,PG,1,100,12123
1739464981.993327,2339792.000,45978,3,PG,1,100,12149
1739464982.033327,2339832.000,45993,2,PG,1,100,12159
1739464982.073327,2339872.000,45993,2,PG,1,100,12170
1739464982.113327,2339912.000,46008,3,PG,1,100,12192
1739464982.153327,2339952.000,46008,3,PG,1,100,12217
1739464982.193327,2339992.000,46008,3,PG,1,100,12227
1739464982.233327,2340032.000,46025,2,PG,1,100,12254
1739464982.273327,2340072.000,46025,2,PG,1,100,12250
1739464982.313326,2340112.000,46041,3,PG,1,100,12191
1739464982.353326,2340152.000,46041,3,PG,1,100,12055
1739464982.393326,2340192.000,46041,3,PG,1,100,11982
1739464982.433326,2340232.000,46057,2,PG,1,100,11969
1739464982.473326,2340272.000,46057,2,PG,1,100,11975
1739464982.513326,2340312.000,46072,3,PG,1,100,12012
1739464982.553326,2340352.000,46072,3,PG,1,100,12032
1739464982.593326,2340392.000,46072,3,PG,1,100,12041
1739464982.633326,2340432.000,46090,2,PG,1,100,12034
1739464982.673326,2340472.000,46090,2,PG,1,100,12014
1739464982.713659,2340512.333,46107,3,PG,1,100,12016
1739464982.753992,2340552.667,46107,3,PG,1,100,12025
1739464982.794326,2340593.000,46107,3,PG,1,100,12059
1739464982.833992,2340632.667,46124,3,PG,1,100,12070
1739464982.873659,2340672.333,46124,3,PG,1,100,12099
1739464982.913325,2340712.000,46124,3,PG,1,100,12133
1739464982.953325,2340752.000,46138,2,PG,1,100,12145
1739464982.993325,2340792.000,46138,2,PG,1,100,12163
1739464983.033325,2340832.000,46154,3,PG,1,100,12173
1739464983.073325,2340872.000,46154,3,PG,1,100,12182
1739464983.113325,2340912.000,46154,3,PG,1,100,12199
1739464983.153325,2340952.000,46171,2,PG,1,100,12204
1739464983.193325,2340992.000,46171,2,PG,1,100,12170
1739464983.233325,2341032.000,46189,3,PG,1,100,12043
1739464983.273324,2341072.000,46189,3,PG,1,100,11959
1739464983.313324,2341112.000,46189,3,PG,1,100,11946
1739464983.353324,2341152.000,46203,2,PG,1,100,11969
1739464983.393324,2341192.000,46203,2,PG,1,100,12004
1739464983.433324,2341232.000,46221,3,PG,1,100,12038
1739464983.473324,2341272.000,46221,3,PG,1,100,12055
1739464983.513324,2341312.000,46221,3,PG,1,100,12068
1739464983.553324,2341352.000,46238,2,PG,1,100,12054
1739464983.593324,2341392.000,46238,2,PG,1,100,12060
1739464983.633324,2341432.000,46254,3,PG,1,100,12096
1739464983.673324,2341472.000,46254,3,PG,1,100,12117
1739464983.713324,2341512.000,46254,3,PG,1,100,12136
1739464983.753324,2341552.000,46269,2,PG,1,100,12166
1739464983.793324,2341592.000,46269,2,PG,1,100,12180
1739464983.833323,2341632.000,46286,3,PG,1,100,12204
1739464983.873323,2341672.000,46286,3,PG,1,100,12218
1739464983.913323,2341712.000,46286,3,PG,1,100,12240
1739464983.953323,2341752.000,46302,2,PG,1,100,12238
1739464983.993323,2341792.000,46302,2,PG,1,100,12237
1739464984.033323,2341832.000,46318,3,PG,1,100,12185
1739464984.073323,2341872.000,46318,3,PG,1,100,12081
1739464984.113323,2341912.000,46318,3,PG,1,100,12024
1739464984.153323,2341952.000,46333,2,PG,1,100,12040
1739464984.193323,2341992.000,46333,2,PG,1,100,12082
1739464984.233323,2342032.000,46351,3,PG,1,100,12111
1739464984.273323,2342072.000,46351,3,PG,1,100,12143
1739464984.313323,2342112.000,46351,3,PG,1,100,12145
1739464984.353323,2342152.000,46367,3,PG,1,100,12165
1739464984.393322,2342192.000,46367,3,PG,1,100,12160
1739464984.433322,2342232.000,46367,3,PG,1,100,12170
1739464984.473322,2342272.000,46383,2,PG,1,100,12174
1739464984.513322,2342312.000,46383,2,PG,1,100,12193
1739464984.553322,2342352.000,46399,3,PG,1,100,12207
1739464984.593322,2342392.000,46399,3,PG,1,100,12222
1739464984.633322,2342432.000,46399,3,PG,1,100,12247
1739464984.673322,2342472.000,46414,2,PG,1,100,12263
1739464984.713322,2342512.000,46414,2,PG,1,100,12267
1739464984.753322,2342552.000,46431,3,PG,1,100,12283
1739464984.793322,2342592.000,46431,3,PG,1,100,12233
1739464984.833322,2342632.000,46431,3,PG,1,100,12119
1739464984.873322,2342672.000,46448,2,PG,1,100,12050
1739464984.913321,2342712.000,46448,2,PG,1,100,12040
1739464984.953321,2342752.000,46464,3,PG,1,100,12060
1739464984.993321,2342792.000,46464,3,PG,1,100,12083
1739464985.033321,2342832.000,46464,3,PG,1,100,12128
1739464985.073321,2342872.000,46480,2,PG,1,100,12149
1739464985.113321,2342912.000,46480,2,PG,1,100,12152
1739464985.153321,2342952.000,46497,3,PG,1,100,12159
1739464985.193321,2342992.000,46497,3,PG,1,100,12168
1739464985.233321,2343032.000,46497,3,PG,1,100,12178
1739464985.273321,2343072.000,46513,2,PG,1,100,12205
1739464985.313321,2343112.000,46513,2,PG,1,100,12220
1739464985.353321,2343152.000,46529,3,PG,1,100,12259
1739464985.393321,2343192.000,46529,3,PG,1,100,12262
1739464985.433320,2343232.000,46529,3,PG,1,100,12280
1739464985.473320,2343272.000,46544,3,PG,1,100,12285
1739464985.513320,2343312.000,46544,3,PG,1,100,12296
1739464985.553320,2343352.000,46544,3,PG,1,100,12290
1739464985.593320,2343392.000,46560,2,PG,1,100,12213
1739464985.633320,2343432.000,46560,2,PG,1,100,12087
1739464985.673320,2343472.000,46576,3,PG,1,100,12053
1739464985.713320,2343512.000,46576,3,PG,1,100,12052
1739464985.753320,2343552.000,46576,3,PG,1,100,12073
1739464985.793320,2343592.000,46593,2,PG,1,100,12087
1739464985.833320,2343632.000,46593,2,PG,1,100,12130
1739464985.873320,2343672.000,46610,3,PG,1,100,12142
1739464985.913319,2343712.000,46610,3,PG,1,100,12157
1739464985.953319,2343752.000,46610,3,PG,1,100,12144
1739464985.993319,2343792.000,46626,2,PG,1,100,12152
1739464986.033319,2343832.000,46626,2,PG,1,100,12166
1739464986.073319,2343872.000,46642,3,PG,1,100,12192
1739464986.113319,2343912.000,46642,3,PG,1,100,12212
1739464986.153319,2343952.000,46642,3,PG,1,100,12234
1739464986.193319,2343992.000,46659,2,PG,1,100,12258
1739464986.233319,2344032.000,46659,2,PG,1,100,12281
1739464986.273319,2344072.000,46673,3,PG,1,100,12299
1739464986.313319,2344112.000,46673,3,PG,1,100,12289
1739464986.353319,2344152.000,46673,3,PG,1,100,12317
1739464986.393318,2344192.000,46689,2,PG,1,100,12321
1739464986.433318,2344232.000,46689,2,PG,1,100,12224
1739464986.473318,2344272.000,46706,3,PG,1,100,12107
1739464986.513318,2344312.000,46706,3,PG,1,100,12060
1739464986.553318,2344352.000,46706,3,PG,1,100,12069
1739464986.593318,2344392.000,46722,2,PG,1,100,12082
1739464986.633318,2344432.000,46722,2,PG,1,100,12126
1739464986.673318,2344472.000,46739,3,PG,1,100,12160
1739464986.713318,2344512.000,46739,3,PG,1,100,12194
1739464986.753318,2344552.000,46739,3,PG,1,100,12184
1739464986.793318,2344592.000,46757,3,PG,1,100,12196
1739464986.833318,2344632.000,46757,3,PG,1,100,12210
1739464986.873318,2344672.000,46757,3,PG,1,100,12236
1739464986.913317,2344712.000,46773,3,PG,1,100,12256
1739464986.953317,2344752.000,46773,3,PG,1,100,12271
1739464986.993317,2344792.000,46773,3,PG,1,100,12311
1739464987.033317,2344832.000,46789,2,PG,1,100,12308
1739464987.073317,2344872.000,46789,2,PG,1,100,12325
1739464987.113317,2344912.000,46806,3,PG,1,100,12339
1739464987.153317,2344952.000,46806,3,PG,1,100,12360
1739464987.193317,2344992.000,46806,3,PG,1,100,12366
1739464987.233317,2345032.000,46822,2,PG,1,100,12383
1739464987.273317,2345072.000,46822,2,PG,1,100,12367
1739464987.313317,2345112.000,46836,3,PG,1,100,12253
1739464987.353317,2345152.000,46836,3,PG,1,100,12140
1739464987.393317,2345192.000,46836,3,PG,1,100,12124
1739464987.433316,2345232.000,46852,3,PG,1,100,12138
1739464987.473316,2345272.000,46852,3,PG,1,100,12185
1739464987.513316,2345312.000,46852,3,PG,1,100,12216
1739464987.553316,2345352.000,46869,2,PG,1,100,12239
1739464987.593316,2345392.000,46869,2,PG,1,100,12238
1739464987.633316,2345432.000,46887,2,PG,1,100,12238
1739464987.673316,2345472.000,46887,2,PG,1,100,12246
1739464987.717649,2345516.333,46901,3,PG,1,100,12270
1739464987.761982,2345560.667,46901,3,PG,1,100,12281
1739464987.806316,2345605.000,46901,3,PG,1,100,12291
1739464987.846316,2345645.000,46919,2,PG,1,100,12318
1739464987.886316,2345685.000,46919,2,PG,1,100,12334
1739464987.926316,2345725.000,46935,3,PG,1,100,12366
1739464987.966316,2345765.000,46935,3,PG,1,100,12377
1739464988.006315,2345805.000,46935,3,PG,1,100,12391
1739464988.046315,2345845.000,46951,2,PG,1,100,12387
1739464988.086315,2345885.000,46951,2,PG,1,100,12356
1739464988.126315,2345925.000,46966,3,PG,1,100,12229
1739464988.166315,2345965.000,46966,3,PG,1,100,12144
1739464988.206315,2346005.000,46966,3,PG,1,100,12121
1739464988.246315,2346045.000,46984,3,PG,1,100,12159
1739464988.286315,2346085.000,46984,3,PG,1,100,12200
1739464988.326315,2346125.000,46984,3,PG,1,100,12225
1739464988.366315,2346165.000,47000,2,PG,1,100,12238
1739464988.406315,2346205.000,47000,2,PG,1,100,12252
1739464988.446315,2346245.000,47018,3,PG,1,100,12255
1739464988.486315,2346285.000,47018,3,PG,1,100,12264
1739464988.526314,2346325.000,47018,3,PG,1,100,12277
1739464988.566314,2346365.000,47034,2,PG,1,100,12284
1739464988.606314,2346405.000,47034,2,PG,1,100,12312
1739464988.646314,2346445.000,47049,3,PG,1,100,12331
1739464988.686314,2346485.000,47049,3,PG,1,100,12345
1739464988.726314,2346525.000,47049,3,PG,1,100,12356
1739464988.766314,2346565.000,47065,2,PG,1,100,12385
1739464988.806314,2346605.000,47065,2,PG,1,100,12396
1739464988.846314,2346645.000,47083,3,PG,1,100,12399
1739464988.886314,2346685.000,47083,3,PG,1,100,12363
1739464988.926314,2346725.000,47083,3,PG,1,100,12227
1739464988.966314,2346765.000,47098,2,PG,1,100,12132
1739464989.006314,2346805.000,47098,2,PG,1,100,12118
1739464989.046313,2346845.000,47115,3,PG,1,100,12129
1739464989.086313,2346885.000,47115,3,PG,1,100,12151
1739464989.126313,2346925.000,47115,3,PG,1,100,12176
1739464989.166313,2346965.000,47132,2,PG,1,100,12205
1739464989.206313,2347005.000,47132,2,PG,1,100,12205
1739464989.246313,2347045.000,47150,3,PG,1,100,12215
1739464989.286313,2347085.000,47150,3,PG,1,100,12224
1739464989.326313,2347125.000,47150,3,PG,1,100,12233
1739464989.366313,2347165.000,47168,2,PG,1,100,12234
1739464989.406313,2347205.000,47168,2,PG,1,100,12260
1739464989.446313,2347245.000,47183,3,PG,1,100,12292
1739464989.486313,2347285.000,47183,3,PG,1,100,12310
1739464989.526312,2347325.000,47183,3,PG,1,100,12324
1739464989.566312,2347365.000,47199,3,PG,1,100,12347
1739464989.606312,2347405.000,47199,3,PG,1,100,12358
1739464989.646312,2347445.000,47199,3,PG,1,100,12368
1739464989.686312,2347485.000,47217,2,PG,1,100,12341
1739464989.726312,2347525.000,47217,2,PG,1,100,12232
1739464989.766312,2347565.000,47233,3,PG,1,100,12134
1739464989.806312,2347605.000,47233,3,PG,1,100,12106
1739464989.846312,2347645.000,47233,3,PG,1,100,12113
1739464989.886312,2347685.000,47249,2,PG,1,100,12126
1739464989.926312,2347725.000,47249,2,PG,1,100,12178
1739464989.966312,2347765.000,47267,3,PG,1,100,12201
1739464990.006311,2347805.000,47267,3,PG,1,100,12217
1739464990.046311,2347845.000,47267,3,PG,1,100,12207
1739464990.086311,2347885.000,47283,2,PG,1,100,12222
1739464990.126311,2347925.000,47283,2,PG,1,100,12233
1739464990.166311,2347965.000,47300,3,PG,1,100,12237
1739464990.206311,2348005.000,47300,3,PG,1,100,12254
1739464990.246311,2348045.000,47300,3,PG,1,100,12284
1739464990.286311,2348085.000,47314,2,PG,1,100,12313
1739464990.326311,2348125.000,47314,2,PG,1,100,12339
1739464990.366311,2348165.000,47330,3,PG,1,100,12342
1739464990.406311,2348205.000,47330,3,PG,1,100,12364
1739464990.446311,2348245.000,47330,3,PG,1,100,12384
1739464990.486310,2348285.000,47347,2,PG,1,100,12406
1739464990.526310,2348325.000,47347,2,PG,1,100,12383
1739464990.566310,2348365.000,47363,3,PG,1,100,12282
1739464990.606310,2348405.000,47363,3,PG,1,100,12167
1739464990.646310,2348445.000,47363,3,PG,1,100,12138
1739464990.686310,2348485.000,47377,2,PG,1,100,12149
1739464990.726310,2348525.000,47377,2,PG,1,100,12175
1739464990.766310,2348565.000,47393,3,PG,1,100,12234
1739464990.806310,2348605.000,47393,3,PG,1,100,12264
1739464990.846310,2348645.000,47393,3,PG,1,100,12267
1739464990.886310,2348685.000,47413,2,PG,1,100,12258
1739464990.926310,2348725.000,47413,2,PG,1,100,12277
1739464990.966310,2348765.000,47429,3,PG,1,100,12287
1739464991.006310,2348805.000,47429,3,PG,1,100,12318
1739464991.046309,2348845.000,47429,3,PG,1,100,12341
1739464991.086309,2348885.000,47443,3,PG,1,100,12358
1739464991.126309,2348925.000,47443,3,PG,1,100,12366
1739464991.166309,2348965.000,47443,3,PG,1,100,12375
1739464991.206309,2349005.000,47460,2,PG,1,100,12383
1739464991.246309,2349045.000,47460,2,PG,1,100,12390
1739464991.286309,2349085.000,47476,3,PG,1,100,12407
1739464991.326309,2349125.000,47476,3,PG,1,100,12375
1739464991.366309,2349165.000,47476,3,PG,1,100,12254
1739464991.406309,2349205.000,47492,2,PG,1,100,12172
1739464991.446309,2349245.000,47492,2,PG,1,100,12161
1739464991.486309,2349285.000,47508,3,PG,1,100,12182
1739464991.526309,2349325.000,47508,3,PG,1,100,12234
1739464991.566308,2349365.000,47508,3,PG,1,100,12265
1739464991.606308,2349405.000,47525,2,PG,1,100,12279
1739464991.646308,2349445.000,47525,2,PG,1,100,12282
1739464991.686308,2349485.000,47541,3,PG,1,100,12277
1739464991.726308,2349525.000,47541,3,PG,1,100,12287
1739464991.766308,2349565.000,47541,3,PG,1,100,12307
1739464991.806308,2349605.000,47558,2,PG,1,100,12342
1739464991.846308,2349645.000,47558,2,PG,1,100,12364
1739464991.886308,2349685.000,47580,4,PG,1,100,12366
1739464991.926308,2349725.000,47580,4,PG,1,100,12376
1739464991.966308,2349765.000,47580,4,PG,1,100,12403
1739464992.006308,2349805.000,47580,4,PG,1,100,12411
1739464992.046308,2349845.000,47596,2,PG,1,100,12351
1739464992.086308,2349885.000,47596,2,PG,1,100,12212
1739464992.126307,2349925.000,47611,3,PG,1,100,12141
1739464992.166307,2349965.000,47611,3,PG,1,100,12123
1739464992.206307,2350005.000,47611,3,PG,1,100,12153
1739464992.246307,2350045.000,47627,3,PG,1,100,12193
1739464992.286307,2350085.000,47627,3,PG,1,100,12217
1739464992.326307,2350125.000,47627,3,PG,1,100,12249
1739464992.366307,2350165.000,47645,2,PG,1,100,12240
1739464992.406307,2350205.000,47645,2,PG,1,100,12254
1739464992.446307,2350245.000,47661,3,PG,1,100,12255
1739464992.486307,2350285.000,47661,3,PG,1,100,12272
1739464992.526307,2350325.000,47661,3,PG,1,100,12300
1739464992.566307,2350365.000,47676,2,PG,1,100,12325
1739464992.606307,2350405.000,47676,2,PG,1,100,12341
1739464992.646306,2350445.000,47692,3,PG,1,100,12351
1739464992.686306,2350485.000,47692,3,PG,1,100,12366
1739464992.726306,2350525.000,47692,3,PG,1,100,12378
1739464992.766306,2350565.000,47708,2,PG,1,100,12322
1739464992.806306,2350605.000,47708,2,PG,1,100,12189
1739464992.846306,2350645.000,47725,3,PG,1,100,12109
1739464992.886306,2350685.000,47725,3,PG,1,100,12099
1739464992.926306,2350725.000,47725,3,PG,1,100,12125
1739464992.966306,2350765.000,47741,2,PG,1,100,12153
1739464993.006306,2350805.000,47741,2,PG,1,100,12176
1739464993.046306,2350845.000,47758,3,PG,1,100,12196
1739464993.086306,2350885.000,47758,3,PG,1,100,12202
1739464993.126305,2350925.000,47758,3,PG,1,100,12208
1739464993.166305,2350965.000,47775,2,PG,1,100,12216
1739464993.206305,2351005.000,47775,2,PG,1,100,12223
1739464993.246305,2351045.000,47793,3,PG,1,100,12254
1739464993.286305,2351085.000,47793,3,PG,1,100,12276
1739464993.326305,2351125.000,47793,3,PG,1,100,12280
1739464993.366305,2351165.000,47809,2,PG,1,100,12317
1739464993.406305,2351205.000,47809,2,PG,1,100,12343
1739464993.446305,2351245.000,47824,3,PG,1,100,12364
1739464993.486305,2351285.000,47824,3,PG,1,100,12369
1739464993.526305,2351325.000,47824,3,PG,1,100,12345
1739464993.566305,2351365.000,47840,2,PG,1,100,12239
1739464993.606304,2351405.000,47840,2,PG,1,100,12116
1739464993.646304,2351445.000,47856,3,PG,1,100,12076
1739464993.686304,2351485.000,47856,3,PG,1,100,12085
1739464993.726304,2351525.000,47856,3,PG,1,100,12109
1739464993.766304,2351565.000,47872,3,PG,1,100,12154
1739464993.806304,2351605.000,47872,3,PG,1,100,12180
1739464993.846304,2351645.000,47872,3,PG,1,100,12193
1739464993.886304,2351685.000,47889,2,PG,1,100,12183
1739464993.926304,2351725.000,47889,2,PG,1,100,12191
1739464993.966304,2351765.000,47906,3,PG,1,100,12211
1739464994.006304,2351805.000,47906,3,PG,1,100,12234
1739464994.046304,2351845.000,47906,3,PG,1,100,12256
1739464994.085804,2351884.500,47922,2,PG,1,100,12262
1739464994.125304,2351924.000,47922,2,PG,1,100,12287
1739464994.165303,2351964.000,47939,3,PG,1,100,12309
1739464994.205303,2352004.000,47939,3,PG,1,100,12320
1739464994.245303,2352044.000,47939,3,PG,1,100,12333
1739464994.285303,2352084.000,47953,2,PG,1,100,12359
1739464994.325303,2352124.000,47953,2,PG,1,100,12375
1739464994.365303,2352164.000,47969,3,PG,1,100,12361
1739464994.405303,2352204.000,47969,3,PG,1,100,12236
1739464994.445303,2352244.000,47969,3,PG,1,100,12128
1739464994.485303,2352284.000,47986,2,PG,1,100,12080
1739464994.525303,2352324.000,47986,2,PG,1,100,12096
1739464994.565303,2352364.000,48002,3,PG,1,100,12115
1739464994.605303,2352404.000,48002,3,PG,1,100,12152
1739464994.645303,2352444.000,48002,3,PG,1,100,12169
1739464994.685302,2352484.000,48016,2,PG,1,100,12177
1739464994.725302,2352524.000,48016,2,PG,1,100,12175
1739464994.765635,2352564.333,48034,3,PG,1,100,12175
1739464994.805969,2352604.667,48034,3,PG,1,100,12194
1739464994.846302,2352645.000,48034,3,PG,1,100,12224
1739464994.885969,2352684.667,48051,3,PG,1,100,12235
1739464994.925635,2352724.333,48051,3,PG,1,100,12272
1739464994.965302,2352764.000,48051,3,PG,1,100,12299
1739464995.005302,2352804.000,48068,2,PG,1,100,12310
1739464995.045302,2352844.000,48068,2,PG,1,100,12313
1739464995.085302,2352884.000,48083,3,PG,1,100,12345
1739464995.125302,2352924.000,48083,3,PG,1,100,12358
1739464995.165302,2352964.000,48083,3,PG,1,100,12367
1739464995.205302,2353004.000,48099,2,PG,1,100,12364
1739464995.245301,2353044.000,48099,2,PG,1,100,12310
1739464995.285301,2353084.000,48115,3,PG,1,100,12181
1739464995.325301,2353124.000,48115,3,PG,1,100,12106
1739464995.365301,2353164.000,48115,3,PG,1,100,12104
1739464995.405301,2353204.000,48131,2,PG,1,100,12110
1739464995.445301,2353244.000,48131,2,PG,1,100,12135
1739464995.485301,2353284.000,48148,3,PG,1,100,12178
1739464995.525301,2353324.000,48148,3,PG,1,100,12215
1739464995.565301,2353364.000,48148,3,PG,1,100,12199
1739464995.605301,2353404.000,48164,2,PG,1,100,12215
1739464995.645301,2353444.000,48164,2,PG,1,100,12216
1739464995.685301,2353484.000,48180,3,PG,1,100,12221
1739464995.725300,2353524.000,48180,3,PG,1,100,12244
1739464995.765300,2353564.000,48180,3,PG,1,100,12270
1739464995.805300,2353604.000,48197,2,PG,1,100,12291
1739464995.845300,2353644.000,48197,2,PG,1,100,12311
1739464995.889967,2353688.667,48213,3,PG,1,100,12331
1739464995.934633,2353733.333,48213,3,PG,1,100,12342
1739464995.979300,2353778.000,48213,3,PG,1,100,12359
1739464996.019300,2353818.000,48228,2,PG,1,100,12375
1739464996.059300,2353858.000,48228,2,PG,1,100,12393
1739464996.099300,2353898.000,48244,3,PG,1,100,12367
1739464996.139300,2353938.000,48244,3,PG,1,100,12254
1739464996.179300,2353978.000,48244,3,PG,1,100,12148
1739464996.219299,2354018.000,48261,2,PG,1,100,12107
1739464996.259299,2354058.000,48261,2,PG,1,100,12125
1739464996.299299,2354098.000,48277,3,PG,1,100,12153
1739464996.339299,2354138.000,48277,3,PG,1,100,12194
1739464996.379299,2354178.000,48277,3,PG,1,100,12219
1739464996.419299,2354218.000,48293,2,PG,1,100,12228
1739464996.459299,2354258.000,48293,2,PG,1,100,12231
1739464996.499299,2354298.000,48310,3,PG,1,100,12240
1739464996.539299,2354338.000,48310,3,PG,1,100,12258
1739464996.579299,2354378.000,48310,3,PG,1,100,12279
1739464996.619299,2354418.000,48326,2,PG,1,100,12292
1739464996.659299,2354458.000,48326,2,PG,1,100,12311
1739464996.699299,2354498.000,48342,3,PG,1,100,12325
1739464996.739298,2354538.000,48342,3,PG,1,100,12331
1739464996.779298,2354578.000,48342,3,PG,1,100,12349
1739464996.819298,2354618.000,48357,2,PG,1,100,12369
1739464996.859298,2354658.000,48357,2,PG,1,100,12382
1739464996.899298,2354698.000,48373,3,PG,1,100,12406
1739464996.939298,2354738.000,48373,3,PG,1,100,12398
1739464996.979298,2354778.000,48373,3,PG,1,100,12385
1739464997.019298,2354818.000,48393,3,PG,1,100,12230
1739464997.059298,2354858.000,48393,3,PG,1,100,12147
1739464997.099298,2354898.000,48393,3,PG,1,100,12124
1739464997.139298,2354938.000,48410,3,PG,1,100,12136
1739464997.179298,2354978.000,48410,3,PG,1,100,12152
1739464997.219297,2355018.000,48410,3,PG,1,100,12197
1739464997.259297,2355058.000,48426,2,PG,1,100,12211
1739464997.299297,2355098.000,48426,2,PG,1,100,12218
1739464997.339297,2355138.000,48443,3,PG,1,100,12236
1739464997.379297,2355178.000,48443,3,PG,1,100,12243
1739464997.419297,2355218.000,48443,3,PG,1,100,12253
1739464997.459297,2355258.000,48459,3,PG,1,100,12264
1739464997.499297,2355298.000,48459,3,PG,1,100,12284
1739464997.539297,2355338.000,48459,3,PG,1,100,12316
1739464997.578797,2355377.500,48475,2,PG,1,100,12338
1739464997.618297,2355417.000,48475,2,PG,1,100,12357
1739464997.658630,2355457.333,48491,3,PG,1,100,12362
1739464997.698963,2355497.667,48491,3,PG,1,100,12373
1739464997.739296,2355538.000,48491,3,PG,1,100,12387
1739464997.778796,2355577.500,48507,2,PG,1,100,12397
1739464997.818296,2355617.000,48507,2,PG,1,100,12391
1739464997.858629,2355657.333,48522,3,PG,1,100,12295
1739464997.898963,2355697.667,48522,3,PG,1,100,12187
1739464997.939296,2355738.000,48522,3,PG,1,100,12149
1739464997.978796,2355777.500,48538,2,PG,1,100,12152
1739464998.018296,2355817.000,48538,2,PG,1,100,12184
1739464998.058629,2355857.333,48555,3,PG,1,100,12222
1739464998.098963,2355897.667,48555,3,PG,1,100,12254
1739464998.139296,2355938.000,48555,3,PG,1,100,12267
1739464998.178796,2355977.500,48572,2,PG,1,100,12254
1739464998.218296,2356017.000,48572,2,PG,1,100,12259
1739464998.258296,2356057.000,48590,3,PG,1,100,12269
1739464998.298295,2356097.000,48590,3,PG,1,100,12280
1739464998.338295,2356137.000,48590,3,PG,1,100,12300
1739464998.378295,2356177.000,48606,2,PG,1,100,12332
1739464998.418295,2356217.000,48606,2,PG,1,100,12362
1739464998.458295,2356257.000,48623,3,PG,1,100,12359
1739464998.498295,2356297.000,48623,3,PG,1,100,12380
1739464998.538295,2356337.000,48623,3,PG,1,100,12387
1739464998.578295,2356377.000,48639,3,PG,1,100,12398
1739464998.618295,2356417.000,48639,3,PG,1,100,12381
1739464998.658295,2356457.000,48639,3,PG,1,100,12265
1739464998.698295,2356497.000,48653,2,PG,1,100,12158
1739464998.738295,2356537.000,48653,2,PG,1,100,12125
1739464998.778295,2356577.000,48669,3,PG,1,100,12138
1739464998.818294,2356617.000,48669,3,PG,1,100,12171
1739464998.858294,2356657.000,48669,3,PG,1,100,12222
1739464998.898294,2356697.000,48686,2,PG,1,100,12239
1739464998.938294,2356737.000,48686,2,PG,1,100,12251
1739464998.978294,2356777.000,48704,3,PG,1,100,12235
1739464999.018294,2356817.000,48704,3,PG,1,100,12253
1739464999.058294,2356857.000,48704,3,PG,1,100,12281
1739464999.098294,2356897.000,48720,2,PG,1,100,12305
1739464999.138294,2356937.000,48720,2,PG,1,100,12326
1739464999.178294,2356977.000,48736,3,PG,1,100,12337
1739464999.218294,2357017.000,48736,3,PG,1,100,12352
1739464999.258294,2357057.000,48736,3,PG,1,100,12366
1739464999.298293,2357097.000,48752,2,PG,1,100,12374
1739464999.338293,2357137.000,48752,2,PG,1,100,12399
1739464999.378293,2357177.000,48768,3,PG,1,100,12405
1739464999.418293,2357217.000,48768,3,PG,1,100,12355
1739464999.458293,2357257.000,48768,3,PG,1,100,12219
1739464999.498293,2357297.000,48784,2,PG,1,100,12133
1739464999.538293,2357337.000,48784,2,PG,1,100,12112
1739464999.578293,2357377.000,48799,3,PG,1,100,12129
1739464999.618293,2357417.000,48799,3,PG,1,100,12164
1739464999.658293,2357457.000,48799,3,PG,1,100,12203
1739464999.698293,2357497.000,48817,2,PG,1,100,12216
1739464999.738293,2357537.000,48817,2,PG,1,100,12223
1739464999.778292,2357577.000,48834,3,PG,1,100,12244
1739464999.818292,2357617.000,48834,3,PG,1,100,12241
1739464999.858292,2357657.000,48834,3,PG,1,100,12278
1739464999.898292,2357697.000,48850,2,PG,1,100,12300
1739464999.938292,2357737.000,48850,2,PG,1,100,12319
1739464999.978292,2357777.000,48864,3,PG,1,100,12335
1739465000.018292,2357817.000,48864,3,PG,1,100,12367
1739465000.058292,2357857.000,48864,3,PG,1,100,12378
1739465000.098292,2357897.000,48881,3,PG,1,100,12386
1739465000.138292,2357937.000,48881,3,PG,1,100,12399
1739465000.178292,2357977.000,48881,3,PG,1,100,12398
1739465000.218292,2358017.000,48898,2,PG,1,100,12341
1739465000.258291,2358057.000,48898,2,PG,1,100,12221
1739465000.298291,2358097.000,48914,3,PG,1,100,12170
1739465000.338291,2358137.000,48914,3,PG,1,100,12165
1739465000.378291,2358177.000,48914,3,PG,1,100,12208
1739465000.418291,2358217.000,48928,2,PG,1,100,12237
1739465000.458291,2358257.000,48928,2,PG,1,100,12261
1739465000.498291,2358297.000,48947,3,PG,1,100,12282
1739465000.538291,2358337.000,48947,3,PG,1,100,12293
1739465000.578291,2358377.000,48947,3,PG,1,100,12319
1739465000.618291,2358417.000,48963,2,PG,1,100,12326
1739465000.658291,2358457.000,48963,2,PG,1,100,12349
1739465000.698291,2358497.000,48979,3,PG,1,100,12359
1739465000.738291,2358537.000,48979,3,PG,1,100,12369
1739465000.778291,2358577.000,48979,3,PG,1,100,12386
1739465000.818290,2358617.000,48994,2,PG,1,100,12400
1739465000.858290,2358657.000,48994,2,PG,1,100,12418
1739465000.898290,2358697.000,49010,3,PG,1,100,12425
1739465000.938290,2358737.000,49010,3,PG,1,100,12383
1739465000.978290,2358777.000,49010,3,PG,1,100,12280
1739465001.018290,2358817.000,49026,2,PG,1,100,12194
1739465001.058290,2358857.000,49026,2,PG,1,100,12203
1739465001.098290,2358897.000,49043,3,PG,1,100,12223
1739465001.138290,2358937.000,49043,3,PG,1,100,12258
1739465001.178290,2358977.000,49043,3,PG,1,100,12285
1739465001.218290,2359017.000,49060,2,PG,1,100,12298
1739465001.258290,2359057.000,49060,2,PG,1,100,12294
1739465001.298290,2359097.000,49076,3,PG,1,100,12302
1739465001.338289,2359137.000,49076,3,PG,1,100,12320
1739465001.378289,2359177.000,49076,3,PG,1,100,12349
1739465001.418289,2359217.000,49092,2,PG,1,100,12377
1739465001.458289,2359257.000,49092,2,PG,1,100,12392
1739465001.498289,2359297.000,49109,3,PG,1,100,12402
1739465001.538289,2359337.000,49109,3,PG,1,100,12421
1739465001.578289,2359377.000,49109,3,PG,1,100,12430
1739465001.618289,2359417.000,49126,3,PG,1,100,12433
1739465001.658289,2359457.000,49126,3,PG,1,100,12389
1739465001.698289,2359497.000,49126,3,PG,1,100,12249
1739465001.738289,2359537.000,49141,2,PG,1,100,12162
1739465001.778289,2359577.000,49141,2,PG,1,100,12135
1739465001.818289,2359617.000,49160,3,PG,1,100,12159
1739465001.858289,2359657.000,49160,3,PG,1,100,12172
1739465001.898288,2359697.000,49160,3,PG,1,100,12211
1739465001.938288,2359737.000,49176,2,PG,1,100,12218
1739465001.978288,2359777.000,49176,2,PG,1,100,12235
1739465002.018288,2359817.000,49193,3,PG,1,100,12251
1739465002.058288,2359857.000,49193,3,PG,1,100,12259
1739465002.098288,2359897.000,49193,3,PG,1,100,12262
1739465002.138288,2359937.000,49213,3,PG,1,100,12296
1739465002.178288,2359977.000,49213,3,PG,1,100,12316
1739465002.218288,2360017.000,49213,3,PG,1,100,12329
1739465002.258288,2360057.000,49229,3,PG,1,100,12351
1739465002.298288,2360097.000,49229,3,PG,1,100,12367
1739465002.338288,2360137.000,49229,3,PG,1,100,12378
1739465002.378288,2360177.000,49245,2,PG,1,100,12393
1739465002.418287,2360217.000,49245,2,PG,1,100,12374
1739465002.458287,2360257.000,49262,3,PG,1,100,12237
1739465002.498287,2360297.000,49262,3,PG,1,100,12131
1739465002.538287,2360337.000,49262,3,PG,1,100,12098
1739465002.578287,2360377.000,49278,2,PG,1,100,12121
1739465002.618287,2360417.000,49278,2,PG,1,100,12135
1739465002.658287,2360457.000,49292,3,PG,1,100,12164
1739465002.698287,2360497.000,49292,3,PG,1,100,12179
1739465002.738287,2360537.000,49292,3,PG,1,100,12193
1739465002.778287,2360577.000,49310,2,PG,1,100,12199
1739465002.818287,2360617.000,49310,2,PG,1,100,12199
1739465002.858287,2360657.000,49327,3,PG,1,100,12223
1739465002.898286,2360697.000,49327,3,PG,1,100,12262
1739465002.938286,2360737.000,49327,3,PG,1,100,12283
1739465002.978286,2360777.000,49343,2,PG,1,100,12307
1739465003.018286,2360817.000,49343,2,PG,1,100,12327
1739465003.058286,2360857.000,49357,3,PG,1,100,12340
1739465003.098286,2360897.000,49357,3,PG,1,100,12359
1739465003.138286,2360937.000,49357,3,PG,1,100,12370
1739465003.178286,2360977.000,49375,2,PG,1,100,12370
1739465003.218286,2361017.000,49375,2,PG,1,100,12333
1739465003.258286,2361057.000,49393,3,PG,1,100,12206
1739465003.298286,2361097.000,49393,3,PG,1,100,12114
1739465003.338286,2361137.000,49393,3,PG,1,100,12101
1739465003.378285,2361177.000,49409,2,PG,1,100,12110
1739465003.418285,2361217.000,49409,2,PG,1,100,12130
1739465003.458285,2361257.000,49424,3,PG,1,100,12163
1739465003.498285,2361297.000,49424,3,PG,1,100,12187
1739465003.538285,2361337.000,49424,3,PG,1,100,12201
1739465003.578285,2361377.000,49442,2,PG,1,100,12196
1739465003.618285,2361417.000,49442,2,PG,1,100,12191
1739465003.658285,2361457.000,49458,3,PG,1,100,12183
1739465003.698285,2361497.000,49458,3,PG,1,100,12198
1739465003.738285,2361537.000,49458,3,PG,1,100,12221
1739465003.784785,2361583.500,49474,2,PG,1,100,12243
1739465003.831285,2361630.000,49474,2,PG,1,100,12267
1739465003.871284,2361670.000,49489,3,PG,1,100,12280
1739465003.911284,2361710.000,49489,3,PG,1,100,12296
1739465003.951284,2361750.000,49489,3,PG,1,100,12286
1739465003.991284,2361790.000,49505,2,PG,1,100,12202
1739465004.031284,2361830.000,49505,2,PG,1,100,12090
1739465004.071284,2361870.000,49521,3,PG,1,100,12063
1739465004.111284,2361910.000,49521,3,PG,1,100,12056
1739465004.151284,2361950.000,49521,3,PG,1,100,12083
1739465004.191284,2361990.000,49539,2,PG,1,100,12113
1739465004.231284,2362030.000,49539,2,PG,1,100,12127
1739465004.271284,2362070.000,49555,3,PG,1,100,12144
1739465004.311284,2362110.000,49555,3,PG,1,100,12164
1739465004.351284,2362150.000,49555,3,PG,1,100,12171
1739465004.391284,2362190.000,49571,2,PG,1,100,12195
1739465004.431283,2362230.000,49571,2,PG,1,100,12211
1739465004.471283,2362270.000,49588,3,PG,1,100,12229
1739465004.511283,2362310.000,49588,3,PG,1,100,12273
1739465004.551283,2362350.000,49588,3,PG,1,100,12302
1739465004.591283,2362390.000,49604,2,PG,1,100,12320
1739465004.631283,2362430.000,49604,2,PG,1,100,12316
1739465004.671283,2362470.000,49619,3,PG,1,100,12261
1739465004.711283,2362510.000,49619,3,PG,1,100,12140
1739465004.751283,2362550.000,49619,3,PG,1,100,12103
1739465004.791283,2362590.000,49635,3,PG,1,100,12101
1739465004.831283,2362630.000,49635,3,PG,1,100,12133
1739465004.871283,2362670.000,49635,3,PG,1,100,12168
1739465004.911283,2362710.000,49651,2,PG,1,100,12196
1739465004.951283,2362750.000,49651,2,PG,1,100,12203
1739465004.991282,2362790.000,49669,3,PG,1,100,12225
1739465005.031282,2362830.000,49669,3,PG,1,100,12232
1739465005.071282,2362870.000,49669,3,PG,1,100,12243
1739465005.111282,2362910.000,49685,2,PG,1,100,12259
1739465005.151282,2362950.000,49685,2,PG,1,100,12279
1739465005.191282,2362990.000,49701,3,PG,1,100,12308
1739465005.231282,2363030.000,49701,3,PG,1,100,12320
1739465005.271282,2363070.000,49701,3,PG,1,100,12355
1739465005.311282,2363110.000,49717,2,PG,1,100,12371
1739465005.351282,2363150.000,49717,2,PG,1,100,12343
1739465005.391282,2363190.000,49733,3,PG,1,100,12201
1739465005.431282,2363230.000,49733,3,PG,1,100,12140
1739465005.471282,2363270.000,49733,3,PG,1,100,12112
1739465005.511281,2363310.000,49750,2,PG,1,100,12146
1739465005.551281,2363350.000,49750,2,PG,1,100,12190
1739465005.591281,2363390.000,49766,3,PG,1,100,12217
1739465005.631281,2363430.000,49766,3,PG,1,100,12235
1739465005.671281,2363470.000,49766,3,PG,1,100,12237
1739465005.711281,2363510.000,49782,2,PG,1,100,12249
1739465005.751281,2363550.000,49782,2,PG,1,100,12274
1739465005.791281,2363590.000,49799,3,PG,1,100,12303
1739465005.831281,2363630.000,49799,3,PG,1,100,12340
1739465005.871281,2363670.000,49799,3,PG,1,100,12363
1739465005.911281,2363710.000,49815,2,PG,1,100,12373
1739465005.951281,2363750.000,49815,2,PG,1,100,12401
1739465005.991281,2363790.000,49829,3,PG,1,100,12411
1739465006.031280,2363830.000,49829,3,PG,1,100,12429
1739465006.071280,2363870.000,49829,3,PG,1,100,12407
1739465006.111280,2363910.000,49845,3,PG,1,100,12287
1739465006.151280,2363950.000,49845,3,PG,1,100,12190
1739465006.191280,2363990.000,49845,3,PG,1,100,12189
1739465006.231280,2364030.000,49863,2,PG,1,100,12218
1739465006.271280,2364070.000,49863,2,PG,1,100,12265
1739465006.311280,2364110.000,49881,3,PG,1,100,12301
1739465006.351280,2364150.000,49881,3,PG,1,100,12305
1739465006.391280,2364190.000,49881,3,PG,1,100,12326
1739465006.431280,2364230.000,49895,2,PG,1,100,12338
1739465006.471280,2364270.000,49895,2,PG,1,100,12367
1739465006.511279,2364310.000,49912,3,PG,1,100,12372
1739465006.551279,2364350.000,49912,3,PG,1,100,12378
1739465006.591279,2364390.000,49912,3,PG,1,100,12402
1739465006.631279,2364430.000,49928,2,PG,1,100,12407
1739465006.671279,2364470.000,49928,2,PG,1,100,12413
1739465006.711279,2364510.000,49944,3,PG,1,100,12447
1739465006.751279,2364550.000,49944,3,PG,1,100,12441
1739465006.791279,2364590.000,49944,3,PG,1,100,12456
1739465006.831279,2364630.000,49960,2,PG,1,100,12430
1739465006.871279,2364670.000,49960,2,PG,1,100,12355
1739465006.911279,2364710.000,49975,3,PG,1,100,12248
1739465006.951279,2364750.000,49975,3,PG,1,100,12229
1739465006.991278,2364790.000,49975,3,PG,1,100,12239
1739465007.031278,2364830.000,49991,2,PG,1,100,12270
1739465007.071278,2364870.000,49991,2,PG,1,100,12297
1739465007.111278,2364910.000,50010,3,PG,1,100,12324
1739465007.151278,2364950.000,50010,3,PG,1,100,12340
1739465007.191278,2364990.000,50010,3,PG,1,100,12348
1739465007.231278,2365030.000,50030,4,PG,1,100,12361
1739465007.271278,2365070.000,50030,4,PG,1,100,12382
1739465007.311278,2365110.000,50030,4,PG,1,100,12394
1739465007.351278,2365150.000,50030,4,PG,1,100,12399
1739465007.391278,2365190.000,50046,2,PG,1,100,12424
1739465007.431278,2365230.000,50046,2,PG,1,100,12426
1739465007.471277,2365270.000,50061,3,PG,1,100,12443
1739465007.511277,2365310.000,50061,3,PG,1,100,12452
1739465007.551277,2365350.000,50061,3,PG,1,100,12462
1739465007.591277,2365390.000,50077,2,PG,1,100,12444
1739465007.631277,2365430.000,50077,2,PG,1,100,12388
1739465007.671277,2365470.000,50093,3,PG,1,100,12291
1739465007.711277,2365510.000,50093,3,PG,1,100,12254
1739465007.751277,2365550.000,50093,3,PG,1,100,12279
1739465007.791277,2365590.000,50109,2,PG,1,100,12321
1739465007.831277,2365630.000,50109,2,PG,1,100,12346
1739465007.871277,2365670.000,50126,3,PG,1,100,12380
1739465007.911277,2365710.000,50126,3,PG,1,100,12378
1739465007.951277,2365750.000,50126,3,PG,1,100,12386
1739465007.991277,2365790.000,50142,2,PG,1,100,12384
1739465008.031276,2365830.000,50142,2,PG,1,100,12392
1739465008.071276,2365870.000,50158,3,PG,1,100,12400
1739465008.111276,2365910.000,50158,3,PG,1,100,12420
1739465008.151276,2365950.000,50158,3,PG,1,100,12433
1739465008.191276,2365990.000,50175,2,PG,1,100,12455
1739465008.231276,2366030.000,50175,2,PG,1,100,12460
1739465008.271276,2366070.000,50193,3,PG,1,100,12440
1739465008.311276,2366110.000,50193,3,PG,1,100,12378
1739465008.351276,2366150.000,50193,3,PG,1,100,12270
1739465008.391276,2366190.000,50208,2,PG,1,100,12263
1739465008.431276,2366230.000,50208,2,PG,1,100,12295
1739465008.471276,2366270.000,50225,3,PG,1,100,12327
1739465008.511276,2366310.000,50225,3,PG,1,100,12354
1739465008.551275,2366350.000,50225,3,PG,1,100,12374
1739465008.591275,2366390.000,50243,3,PG,1,100,12386
1739465008.631275,2366430.000,50243,3,PG,1,100,12381
1739465008.671275,2366470.000,50243,3,PG,1,100,12385
1739465008.711275,2366510.000,50259,2,PG,1,100,12406
1739465008.751275,2366550.000,50259,2,PG,1,100,12421
1739465008.791275,2366590.000,50274,3,PG,1,100,12433
1739465008.831275,2366630.000,50274,3,PG,1,100,12429
1739465008.871275,2366670.000,50274,3,PG,1,100,12437
1739465008.911275,2366710.000,50290,2,PG,1,100,12472
1739465008.951275,2366750.000,50290,2,PG,1,100,12463
1739465008.991275,2366790.000,50306,3,PG,1,100,12398
1739465009.031275,2366830.000,50306,3,PG,1,100,12271
1739465009.071275,2366870.000,50306,3,PG,1,100,12234
1739465009.111274,2366910.000,50322,2,PG,1,100,12238
1739465009.151274,2366950.000,50322,2,PG,1,100,12258
1739465009.191274,2366990.000,50337,3,PG,1,100,12312
1739465009.231274,2367030.000,50337,3,PG,1,100,12359
1739465009.271274,2367070.000,50337,3,PG,1,100,12357
1739465009.311274,2367110.000,50356,2,PG,1,100,12368
1739465009.351274,2367150.000,50356,2,PG,1,100,12360
1739465009.391274,2367190.000,50372,3,PG,1,100,12396
1739465009.431274,2367230.000,50372,3,PG,1,100,12406
1739465009.471274,2367270.000,50372,3,PG,1,100,12425
1739465009.511274,2367310.000,50389,2,PG,1,100,12423
1739465009.551274,2367350.000,50389,2,PG,1,100,12433
1739465009.591274,2367390.000,50403,3,PG,1,100,12455
1739465009.631273,2367430.000,50403,3,PG,1,100,12470
1739465009.671273,2367470.000,50403,3,PG,1,100,12476
1739465009.711273,2367510.000,50419,2,PG,1,100,12442
1739465009.751273,2367550.000,50419,2,PG,1,100,12350
1739465009.791273,2367590.000,50436,3,PG,1,100,12234
1739465009.831273,2367630.000,50436,3,PG,1,100,12237
1739465009.871273,2367670.000,50436,3,PG,1,100,12256
1739465009.911273,2367710.000,50452,2,PG,1,100,12287
1739465009.951273,2367750.000,50452,2,PG,1,100,12327
1739465009.991273,2367790.000,50468,3,PG,1,100,12347
1739465010.031273,2367830.000,50468,3,PG,1,100,12349
1739465010.071273,2367870.000,50468,3,PG,1,100,12356
1739465010.111272,2367910.000,50484,3,PG,1,100,12375
1739465010.151272,2367950.000,50484,3,PG,1,100,12390
